# time correlation overlap_with_initial
0.000000000000000000e+00 -1.000000000000000000e+00 1.000000000000000000e+00
4.008016032064128098e-02 -9.967873446587011133e-01 9.856291686723444023e-01
8.016032064128256196e-02 -9.871700314618244709e-01 9.436996033498552539e-01
1.202404809619238429e-01 -9.712103766111200853e-01 8.776052558256319802e-01
1.603206412825651239e-01 -9.490136846699116502e-01 7.925142820057461401e-01
2.004008016032063910e-01 -9.207293363135106157e-01 6.947215281722185498e-01
2.404809619238476859e-01 -8.865531665834193165e-01 5.909054346135255154e-01
2.805611222444889807e-01 -8.467292742033667441e-01 4.874013456616441697e-01
3.206412825651302478e-01 -8.015529136223550344e-01 3.896024841405007488e-01
3.607214428857715149e-01 -7.513723622804820979e-01 3.015560523658789016e-01
4.008016032064127820e-01 -6.965912669887536213e-01 2.257901160463565426e-01
4.408817635270541047e-01 -6.376698234735135307e-01 1.633564536526058708e-01
4.809619238476953718e-01 -5.751254667741211302e-01 1.140460485352000480e-01
5.210420841683366389e-01 -5.095325150779953516e-01 7.671049276203271983e-02
5.611222444889779615e-01 -4.415201748075578414e-01 4.962042255988867445e-02
6.012024048096191731e-01 -3.717698703939817939e-01 3.080047890687594506e-02
6.412825651302604957e-01 -3.010098001834202175e-01 1.829941144671146797e-02
6.813627254509018183e-01 -2.300094217371426442e-01 1.037486112146705601e-02
7.214428857715430299e-01 -1.595702398085656615e-01 5.592665130515095395e-03
7.615230460921843525e-01 -9.051732057527087094e-02 2.853926989839356866e-03
8.016032064128255641e-01 -2.368657416369877172e-02 1.371294856552743779e-03
8.416833667334668867e-01 4.008632042894198083e-02 6.163057566090374010e-04
8.817635270541082093e-01 9.998124168584802962e-02 2.569220123024037561e-04
9.218436873747494209e-01 1.552063787438386355e-01 9.827519641400599408e-05
9.619238476953907435e-01 2.050146958034626543e-01 3.400131491313298018e-05
1.002004008016031955e+00 2.487170049810127348e-01 1.043255306790540026e-05
1.042084168336673278e+00 2.856977056857786246e-01 2.759314807982365542e-06
1.082164328657314600e+00 3.154265557088097305e-01 6.022992009494067222e-07
1.122244488977955923e+00 3.374717155102462396e-01 1.007922642959890178e-07
1.162324649298597246e+00 3.515085919411949367e-01 1.118329953993808435e-08
1.202404809619238346e+00 3.573284512844037142e-01 5.537284629899085080e-10
1.242484969939879669e+00 3.548429893798771828e-01 1.000927191094264828e-13
1.282565130260520991e+00 3.440873389440214369e-01 3.800442913792212804e-12
1.322645290581162314e+00 3.252195455243575006e-01 6.255746099878776385e-14
1.362725450901803637e+00 2.985175975873504139e-01 6.031029799171326609e-16
1.402805611222444737e+00 2.643736647742171986e-01 1.154527934850373638e-12
1.442885771543086060e+00 2.232856758602862479e-01 3.704110045077319013e-12
1.482965931863727382e+00 1.758468853973018942e-01 1.933979857569148627e-12
1.523046092184368705e+00 1.227333164093224599e-01 3.768693361158637569e-13
1.563126252505010028e+00 6.468985801392633517e-02 1.059578349393940266e-11
1.603206412825651128e+00 2.515400877939292981e-03 2.897424040003771403e-11
1.643286573146292451e+00 -6.295288959621316016e-02 3.600347564768232383e-11
1.683366733466933773e+00 -1.308547445449638746e-01 2.163742484287308664e-11
1.723446893787575096e+00 -2.003225601354219343e-01 2.366150627444839260e-12
1.763527054108216419e+00 -2.704950390449767372e-01 7.180894530392339418e-12
1.803607214428857741e+00 -3.405313881214064864e-01 4.763462124172967855e-11
1.843687374749498842e+00 -4.096220403511721675e-01 1.038811021845182976e-10
1.883767535070140164e+00 -4.770000859400126969e-01 1.400675200225549702e-10
1.923847695390781487e+00 -5.419483072129128720e-01 1.332977288049552532e-10
1.963927855711422810e+00 -6.038072056383231301e-01 9.012757501074633540e-11
2.004008016032063910e+00 -6.619782485075592637e-01 3.866956183341837432e-11
2.044088176352705233e+00 -7.159284347504948354e-01 6.131391003752381217e-12
2.084168336673346555e+00 -7.651902392529018604e-01 1.332489501421325124e-12
2.124248496993987878e+00 -8.093631566564868374e-01 1.384236469146523353e-11
2.164328657314629201e+00 -8.481112450249707058e-01 2.643694827013502262e-11
2.204408817635270523e+00 -8.811624263053017270e-01 2.850940502516494675e-11
2.244488977955911846e+00 -9.083047284911683894e-01 2.068815241096850683e-11
2.284569138276553169e+00 -9.293842725321553866e-01 1.010934202305455539e-11
2.324649298597194491e+00 -9.443012886501594982e-01 2.877860488235138893e-12
2.364729458917835370e+00 -9.530076894778624075e-01 2.480676314262897560e-13
2.404809619238476692e+00 -9.555037248919103776e-01 5.307240904466591334e-14
2.444889779559118015e+00 -9.518358662239607693e-01 1.397266034491493673e-13
2.484969939879759337e+00 -9.420946201981624801e-01 2.773457296712087622e-14
2.525050100200400660e+00 -9.264131814176798096e-01 9.327693206519750917e-15
2.565130260521041983e+00 -9.049665157159826334e-01 3.430301794957521240e-15
2.605210420841683305e+00 -8.779709295107487321e-01 6.872846078468569346e-13
2.645290581162324628e+00 -8.456841353280847295e-01 6.784261601101985651e-12
2.685370741482965951e+00 -8.084055660454541048e-01 2.948832937974219643e-11
2.725450901803607273e+00 -7.664768259736605138e-01 8.458556148542850484e-11
2.765531062124248596e+00 -7.202822938646079587e-01 1.854620548691081312e-10
2.805611222444889474e+00 -6.702491703558366432e-01 3.339581678928243068e-10
2.845691382765530797e+00 -6.168477240342613577e-01 5.140643616024323414e-10
2.885771543086172120e+00 -5.605900872882212393e-01 6.922932281911671493e-10
2.925851703406813442e+00 -5.020294387698710503e-01 8.248545536414427232e-10
2.965931863727454765e+00 -4.417567904106756704e-01 8.683233550832630806e-10
3.006012024048096087e+00 -3.803989273319462461e-01 7.900737871199162058e-10
3.046092184368737410e+00 -3.186113128498060387e-01 5.786660696187985677e-10
3.086172344689378733e+00 -2.570753436798793312e-01 2.678852160474605438e-10
3.126252505010020055e+00 -1.964876887425400231e-01 1.168690597967126383e-11
3.166332665330661378e+00 -1.375556199802127622e-01 3.101866018469114935e-10
3.206412825651302256e+00 -8.098559983742600887e-02 2.627781534088041761e-09
3.246492985971943579e+00 -2.747449527835831018e-02 1.097257234991844186e-08
3.286573146292584902e+00 2.230365323394738891e-02 3.572129410331034586e-08
3.326653306613226224e+00 6.770661407882684613e-02 1.024205831448509824e-07
3.366733466933867547e+00 1.081364003202865548e-01 2.711150852807760365e-07
3.406813627254508869e+00 1.430497760267567808e-01 6.768695443428617704e-07
3.446893787575150192e+00 1.719711217385503643e-01 1.611262459120714281e-06
3.486973947895791515e+00 1.944991775662443523e-01 3.679229160263401169e-06
3.527054108216432837e+00 2.103183664753142945e-01 8.089811752314997464e-06
3.567134268537074160e+00 2.192047475135034118e-01 1.717399079967216850e-05
3.607214428857715482e+00 2.210320315805581470e-01 3.527369532958930223e-05
3.647294589178356361e+00 2.157747010565656542e-01 7.021163825068290514e-05
3.687374749498997684e+00 2.035096813107278857e-01 1.356338751790692643e-04
3.727454909819639006e+00 1.844153891172460313e-01 2.546047913283801191e-04
3.767535070140280329e+00 1.587688628056989348e-01 4.649162004444050574e-04
3.807615230460921651e+00 1.269405934080021503e-01 8.266166276126797781e-04
3.847695390781562974e+00 8.938754846678768906e-02 1.432238694080958030e-03
3.887775551102204297e+00 4.664420920793823505e-02 2.420042046135373152e-03
3.927855711422845619e+00 -6.875438295444020152e-04 3.990254238095855902e-03
3.967935871743486942e+00 -5.195023892580697550e-02 6.423693109449460197e-03
4.008016032064127820e+00 -1.064427253861625344e-01 1.010134410474395998e-02
4.048096192384769587e+00 -1.634335189773794272e-01 1.552229864653528919e-02
4.088176352705410466e+00 -2.221730231827352964e-01 2.331634345613702725e-02
4.128256513026052232e+00 -2.819069709074775720e-01 3.424606541980068641e-02
4.168336673346693111e+00 -3.418875611734134567e-01 4.919279828061466631e-02
4.208416833667334878e+00 -4.013856616867180205e-01 6.912007201932848788e-02
4.248496993987975756e+00 -4.596997762708210367e-01 9.500985335739561832e-02
4.288577154308616635e+00 -5.161659813089963800e-01 1.277683880655297310e-01
4.328657314629258401e+00 -5.701640911754234375e-01 1.681035496295731069e-01
4.368737474949899280e+00 -6.211247398295913769e-01 2.163799261483382030e-01
4.408817635270541047e+00 -6.685326129565671849e-01 2.724655058646231476e-01
4.448897795591181925e+00 -7.119305630022295661e-01 3.355891449082129552e-01
4.488977955911823692e+00 -7.509202328436759277e-01 4.042335630506185828e-01
4.529058116232464570e+00 -7.851635200684277116e-01 4.760904095398202363e-01
4.569138276553106337e+00 -8.143812510789268932e-01 5.481007041855554540e-01
4.609218436873747216e+00 -8.383526206139093606e-01 6.165977575237516772e-01
4.649298597194388982e+00 -8.569127414389665631e-01 6.775542541399126595e-01
4.689378757515029861e+00 -8.699508410839639216e-01 7.269216125437168996e-01
4.729458917835670739e+00 -8.774074996227579915e-01 7.610280946190577378e-01
4.769539078156312506e+00 -8.792723848614774074e-01 7.769898196732873963e-01
4.809619238476953385e+00 -8.755818153240157997e-01 7.730758130854588073e-01
4.849699398797595151e+00 -8.664166865307597609e-01 7.489696162734009732e-01
4.889779559118236030e+00 -8.519007129383132648e-01 7.058785498466283448e-01
4.929859719438877796e+00 -8.321989527382804841e-01 6.464625073240881648e-01
4.969939879759518675e+00 -8.075167763105052243e-01 5.745816206676774840e-01
5.010020040080160442e+00 -7.780990871525576003e-01 4.948926076761879789e-01
5.050100200400801320e+00 -7.442297750682079771e-01 4.123491769592841361e-01
5.090180360721443087e+00 -7.062314306934160957e-01 3.316813682145514086e-01
5.130260521042083965e+00 -6.644648080176289717e-01 2.569289303457908957e-01
5.170340681362724844e+00 -6.193285941918577064e-01 1.910981579982296286e-01
5.210420841683366611e+00 -5.712582676601807297e-01 1.359820939031737008e-01
5.250501002004007489e+00 -5.207253507613257559e-01 9.215990676130360326e-02
5.290581162324649256e+00 -4.682350334806024139e-01 5.915279338713586715e-02
5.330661322645290134e+00 -4.143243254781824869e-01 3.569420421351977152e-02
5.370741482965931901e+00 -3.595579308773753646e-01 2.005263068720943703e-02
5.410821643286572780e+00 -3.045248328547094374e-01 1.034784971524141395e-02
5.450901803607214546e+00 -2.498321420395436532e-01 4.810407400762953256e-03
5.490981963927855425e+00 -1.960998761008886648e-01 1.954979521679652520e-03
5.531062124248497192e+00 -1.439528328773157506e-01 6.603173272213135221e-04
5.571142284569138070e+00 -9.401363670631979197e-02 1.679587295627667058e-04
5.611222444889778949e+00 -4.689305818549392713e-02 2.507268476502395345e-05
5.651302605210420715e+00 -3.181740164990746935e-03 5.962159289538637868e-07
5.691382765531061594e+00 3.656026360827215049e-02 6.553117055881471742e-07
5.731462925851703361e+00 7.181235449063565202e-02 4.868069358364547782e-07
5.771543086172344239e+00 1.021035962684674891e-01 7.731559510563023850e-08
5.811623246492986006e+00 1.270212133403688104e-01 2.109295129892897962e-06
5.851703406813626884e+00 1.462193942441610550e-01 5.670216162954905467e-06
5.891783567134268651e+00 1.594263545601932452e-01 7.842464962782181182e-06
5.931863727454909530e+00 1.664506722899865565e-01 6.877147359657245194e-06
5.971943887775551296e+00 1.671858896566723318e-01 3.614430775692005595e-06
6.012024048096192175e+00 1.616135848148205767e-01 6.276794689808918888e-07
6.052104208416833053e+00 1.498047169346827245e-01 2.638128389942055597e-07
6.092184368737474820e+00 1.319190237974117719e-01 3.097277141333302763e-06
6.132264529058115698e+00 1.082027153123241991e-01 7.682777181068985403e-06
6.172344689378757465e+00 7.898424219191463314e-02 1.154257903075228955e-05
6.212424849699398344e+00 4.466842566409373605e-02 1.264226819527557539e-05
6.252505010020040110e+00 5.729104428217031766e-03 1.047478288999299551e-05
6.292585170340680989e+00 -3.729973336435733061e-02 6.228930329939363768e-06
6.332665330661322756e+00 -8.383353049760436382e-02 2.076955994098184682e-06
6.372745490981963634e+00 -1.332480706929429770e-01 5.189918214483286547e-08
6.412825651302604513e+00 -1.848901476807007227e-01 1.117176233174604773e-06
6.452905811623246279e+00 -2.380893277715780409e-01 4.838660322442149294e-06
6.492985971943887158e+00 -2.921685077450097423e-01 9.721414343156977063e-06
6.533066132264528925e+00 -3.464552992741766757e-01 1.395517307719850755e-05
6.573146292585169803e+00 -4.002914016168061528e-01 1.617196609859577414e-05
6.613226452905811570e+00 -4.530425267255462352e-01 1.588993289591529587e-05
6.653306613226452448e+00 -5.041057935409803958e-01 1.351899683910315479e-05
6.693386773547094215e+00 -5.529174155724986273e-01 1.001944495590239488e-05
6.733466933867735094e+00 -5.989576994508624130e-01 6.435390710687855774e-06
6.773547094188376860e+00 -6.417561095504159541e-01 3.520548360555970922e-06
6.813627254509017739e+00 -6.808938505492293514e-01 1.583118361260209092e-06
6.853707414829658617e+00 -7.160063313336901825e-01 5.445912105094226908e-07
6.893787575150300384e+00 -7.467836577105986251e-01 1.210246172325130591e-07
6.933867735470941263e+00 -7.729708703959072835e-01 9.661917502794529711e-09
6.973947895791583029e+00 -7.943669105910592387e-01 1.955441105737983537e-09
7.014028056112223908e+00 -8.108232566831571342e-01 4.843269782244875763e-09
7.054108216432865675e+00 -8.222420153536684762e-01 1.602767048463902368e-09
7.094188376753506553e+00 -8.285736989677728870e-01 1.325358127979262341e-10
7.134268537074148320e+00 -8.298150510098094568e-01 2.582265203518562183e-09
7.174348697394789198e+00 -8.260066590431880407e-01 3.193528354272297830e-09
7.214428857715430965e+00 -8.172309865608614610e-01 3.337911183605986129e-10
7.254509018036071843e+00 -8.036103362963209484e-01 4.151673930950640139e-09
7.294589178356712722e+00 -7.853053461252361700e-01 3.085463945811476661e-08
7.334669338677354489e+00 -7.625135610635382921e-01 8.821191901573363040e-08
7.374749498997995367e+00 -7.354683996683492042e-01 1.644433871051185753e-07
7.414829659318637134e+00 -7.044383129627469486e-01 2.300565584078995598e-07
7.454909819639278012e+00 -6.697259879627920354e-01 2.528954975048343021e-07
7.494989979959919779e+00 -6.316678191542349774e-01 2.174210801537705441e-07
7.535070140280560658e+00 -5.906329320441062736e-01 1.365033592586333512e-07
7.575150300601202424e+00 -5.470225112982741722e-01 4.852062242021560620e-08
7.615230460921843303e+00 -5.012681348240070056e-01 1.318875970621229532e-09
7.655310621242485070e+00 -4.538304232780671632e-01 3.185242417363205543e-08
7.695390781563125948e+00 -4.051961951350988023e-01 1.520887269728049437e-07
7.735470941883766827e+00 -3.558759399342937835e-01 3.477464065568040028e-07
7.775551102204408593e+00 -3.063994403957360779e-01 5.894869203310466452e-07
7.815631262525049472e+00 -2.573117234067985315e-01 8.504694719199292958e-07
7.855711422845691239e+00 -2.091670303950998733e-01 1.123051080753240236e-06
7.895791583166332117e+00 -1.625231443588962543e-01 1.430770222315671290e-06
7.935871743486973884e+00 -1.179338894401344567e-01 1.838235332110635509e-06
7.975951903807614762e+00 -7.594203173277180863e-02 2.467892868513837800e-06
8.016032064128255641e+00 -3.707080293752190725e-02 3.537202277187940826e-06
8.056112224448897408e+00 -1.815879365676470718e-03 5.432555281729614881e-06
8.096192384769539174e+00 2.936331009700766242e-02 8.838904630873602091e-06
8.136272545090179165e+00 5.605175008681758525e-02 1.494969990424258670e-05
8.176352705410820931e+00 7.788684123958095062e-02 2.579252153062023048e-05
8.216432865731462698e+00 9.456575105022335670e-02 4.472380671678455885e-05
8.256513026052104465e+00 1.058518023068396319e-01 7.717114860738819211e-05
8.296593186372744455e+00 1.115800298732359253e-01 1.317335797323078211e-04
8.336673346693386222e+00 1.116611438739855688e-01 2.217853107084467423e-04
8.376753507014027988e+00 1.060844641256998150e-01 3.677645581303365689e-04
8.416833667334669755e+00 9.491889607055800648e-02 6.003559658013200026e-04
8.456913827655309746e+00 7.831271044352121347e-02 9.647865169758572260e-04
8.496993987975951512e+00 5.649132273971443213e-02 1.526433620308925319e-03
8.537074148296593279e+00 2.975378158202130960e-02 2.377871132466419495e-03
8.577154308617233269e+00 -1.532458331279923196e-03 3.647350839067850081e-03
8.617234468937875036e+00 -3.693804524988706511e-02 5.508475741458331021e-03
8.657314629258516803e+00 -7.597939652364701923e-02 8.190542730532006724e-03
8.697394789579158569e+00 -1.181275198446351260e-01 1.198855522734501231e-02
8.737474949899798560e+00 -1.628172604003218782e-01 1.727152416727353174e-02
8.777555110220440326e+00 -2.094574642937447051e-01 2.448699314787064485e-02
8.817635270541082093e+00 -2.574407933753013467e-01 3.415947867768622664e-02
8.857715430861723860e+00 -3.061541293489518090e-01 4.687985924011848354e-02
8.897795591182363850e+00 -3.549879455168893361e-01 6.328313601212177952e-02
8.937875751503005617e+00 -4.033458896703688845e-01 8.401182418390432116e-02
8.977955911823647384e+00 -4.506528543981694335e-01 1.096638789177342976e-01
9.018036072144287374e+00 -4.963628730894946162e-01 1.407249055741953969e-01
9.058116232464929141e+00 -5.399652974071897926e-01 1.774875889163042286e-01
9.098196392785570907e+00 -5.809904514830542821e-01 2.199631849462241329e-01
9.138276553106212674e+00 -6.190136523897928900e-01 2.677939227060763261e-01
9.178356713426852664e+00 -6.536584341950778532e-01 3.201771019242746763e-01
9.218436873747494431e+00 -6.845984675840237621e-01 3.758144825009298584e-01
9.258517034068136198e+00 -7.115585321721118461e-01 4.329002799003181523e-01
9.298597194388777964e+00 -7.343146487473164452e-01 4.891602364754092935e-01
9.338677354709417955e+00 -7.526932695181710598e-01 5.419493454375792219e-01
9.378757515030059722e+00 -7.665701133664847289e-01 5.884103902132785668e-01
9.418837675350701488e+00 -7.758682054927438232e-01 6.256856636700418584e-01
9.458917835671341479e+00 -7.805559814648891370e-01 6.511667896656628818e-01
9.498997995991983245e+00 -7.806448328183510643e-01 6.627564998445931721e-01
9.539078156312625012e+00 -7.761870080219787082e-01 6.591125489939305693e-01
9.579158316633266779e+00 -7.672732234671473250e-01 6.398383518115575708e-01
9.619238476953906769e+00 -7.540307546044181519e-01 6.055905641705371378e-01
9.659318637274548536e+00 -7.366214817181320207e-01 5.580793079978906279e-01
9.699398797595190302e+00 -7.152403646407525795e-01 4.999517189140403328e-01
9.739478957915832069e+00 -6.901140517605578450e-01 4.345652757500071961e-01
9.779559118236472059e+00 -6.614997084503086988e-01 3.656735982127664597e-01
9.819639278557113826e+00 -6.296840730282921017e-01 2.970647859287947057e-01
9.859719438877755593e+00 -5.949824063525631646e-01 2.321974757948805645e-01
9.899799599198395583e+00 -5.577376748448193977e-01 1.738873631461036184e-01
9.939879759519037350e+00 -5.183192462649556242e-01 1.240834925991487203e-01
9.979959919839679117e+00 -4.771217537208928272e-01 8.376646816609255308e-02
1.002004008016032088e+01 -4.345631097098990314e-01 5.297390820196609673e-02
1.006012024048096087e+01 -3.910825791524150108e-01 3.094365707964183421e-02
1.010020040080160264e+01 -3.471377344814400301e-01 1.634103372937697682e-02
1.014028056112224441e+01 -3.032013465830264987e-01 7.528249127271409435e-03
1.018036072144288617e+01 -2.597570541597865046e-01 2.827483604933375087e-03
1.022044088176352616e+01 -2.172948580428636089e-01 7.368003439912984651e-04
1.026052104208416793e+01 -1.763055051951339935e-01 7.049192307893574374e-05
1.030060120240480970e+01 -1.372746209514160709e-01 1.400438987261927745e-05
1.034068136272544969e+01 -1.006760657397162001e-01 1.016003216311674488e-04
1.038076152304609145e+01 -6.696502955318914263e-02 1.392920483617490475e-04
1.042084168336673322e+01 -3.657085732573839287e-02 1.029688492060523822e-04
1.046092184368737499e+01 -9.889702126827576434e-03 4.103710966475112340e-05
1.050100200400801498e+01 1.272249453532795990e-02 3.323418060474495675e-06
