# time correlation overlap_with_initial
0.000000000000000000e+00 -1.000000000000000000e+00 1.000000000000000000e+00
4.008016032064128098e-02 -9.967942314121899239e-01 9.856729174025214979e-01
8.016032064128256196e-02 -9.871974905912899168e-01 9.438674386055038168e-01
1.202404809619238429e-01 -9.712718213196277484e-01 8.779574294460318340e-01
1.603206412825651239e-01 -9.491220544238858636e-01 7.930819263635393579e-01
2.004008016032063910e-01 -9.208968537041557489e-01 6.955030525729856139e-01
2.404809619238476859e-01 -8.867910769922254799e-01 5.918688253139636757e-01
2.805611222444889807e-01 -8.470474921504449473e-01 4.884912919919098262e-01
3.206412825651302478e-01 -8.019596932557140345e-01 3.907508157339960042e-01
3.607214428857715149e-01 -7.518738089905914190e-01 3.026928403616298557e-01
4.008016032064127820e-01 -6.971909531152362671e-01 2.268537008045840853e-01
4.408817635270541047e-01 -6.383681905442243343e-01 1.643003990428149597e-01
4.809619238476953718e-01 -5.759194289920606113e-01 1.148426057908756293e-01
5.210420841683366389e-01 -5.104148165427938588e-01 7.735040990051794685e-02
5.611222444889779615e-01 -4.424790579072666596e-01 5.011004095103781947e-02
6.012024048096191731e-01 -3.727884882484404083e-01 3.115717713301784791e-02
6.412825651302604957e-01 -3.020660476232372438e-01 1.854660780553632829e-02
6.813627254509018183e-01 -2.310755259799803785e-01 1.053756710295596609e-02
7.214428857715430299e-01 -1.606128544487855081e-01 5.694144951559854291e-03
7.615230460921843525e-01 -9.149741805030398023e-02 2.913720635606716850e-03
8.016032064128255641e-01 -2.455988341469358960e-02 1.404443522319395211e-03
8.416833667334668867e-01 3.936902273378532074e-02 6.335078074478295773e-04
8.817635270541082093e-01 9.947331178419960285e-02 2.652215532388390185e-04
9.218436873747494209e-01 1.549645721937080445e-01 1.019656650605501870e-04
9.619238476953907435e-01 2.050979884350357940e-01 3.549594652478422872e-05
1.002004008016031955e+00 2.491854467225743941e-01 1.097505814559441073e-05
1.042084168336673278e+00 2.866109702355548183e-01 2.931753222274352667e-06
1.082164328657314600e+00 3.168424922405561617e-01 6.486464085996824072e-07
1.122244488977955923e+00 3.394447732256799521e-01 1.107337426605141032e-07
1.162324649298597246e+00 3.540882517842166011e-01 1.270925672598083872e-08
1.202404809619238346e+00 3.605577054378156232e-01 6.813466238590317194e-10
1.242484969939879669e+00 3.587568815388888499e-01 7.650477879108897430e-13
1.282565130260520991e+00 3.487116775952527892e-01 4.022398381911991655e-12
1.322645290581162314e+00 3.305697907439090200e-01 1.214191812676666559e-13
1.362725450901803637e+00 3.045979470309413961e-01 2.056905812883204266e-15
1.402805611222444737e+00 2.711764934890673051e-01 9.330257326547187557e-13
1.442885771543086060e+00 2.307910639619109305e-01 3.379513683822425390e-12
1.482965931863727382e+00 1.840227401512628536e-01 1.974398672964427855e-12
1.523046092184368705e+00 1.315353418903443261e-01 2.279321439879437182e-13
1.563126252505010028e+00 7.406236493553926270e-02 9.143827977767583829e-12
1.603206412825651128e+00 1.239167366396091985e-02 2.624405112473766387e-11
1.643286573146292451e+00 -5.264922069380876396e-02 3.345491272510456365e-11
1.683366733466933773e+00 -1.202090253215424842e-01 2.061005636203481132e-11
1.723446893787575096e+00 -1.894273812109299182e-01 2.483836003179212704e-12
1.763527054108216419e+00 -2.594493810498277875e-01 6.405032727011831467e-12
1.803607214428857741e+00 -3.294387575876392971e-01 4.381158429551358750e-11
1.843687374749498842e+00 -3.985895819501643067e-01 9.635577219122534516e-11
1.883767535070140164e+00 -4.661367992936968907e-01 1.301296036210298631e-10
1.923847695390781487e+00 -5.313642427508201704e-01 1.233812834679632811e-10
1.963927855711422810e+00 -5.936119267708653835e-01 8.249385391961902711e-11
2.004008016032063910e+00 -6.522801764673831215e-01 3.444268971935387231e-11
2.044088176352705233e+00 -7.068336453209765891e-01 5.087978308026777016e-12
2.084168336673346555e+00 -7.568019606851204006e-01 2.319321997908493006e-12
2.124248496993987878e+00 -8.017809056781084465e-01 1.547081483114549025e-11
2.164328657314629201e+00 -8.414304254145378303e-01 2.768061935968052265e-11
2.204408817635270523e+00 -8.754737319149407115e-01 2.898292396680523651e-11
2.244488977955911846e+00 -9.036937512852309951e-01 2.056363066618422981e-11
2.284569138276553169e+00 -9.259310443817881930e-01 9.792962328758077853e-12
2.324649298597194491e+00 -9.420797955599345963e-01 2.675788720837557205e-12
2.364729458917835370e+00 -9.520853974543200815e-01 2.197435355009610128e-13
2.404809619238476692e+00 -9.559409156737864732e-01 9.482246324325410643e-14
2.444889779559118015e+00 -9.536849985094510984e-01 1.609221368174738662e-13
2.484969939879759337e+00 -9.453994504645465424e-01 3.000955529294930413e-14
2.525050100200400660e+00 -9.312078482906787080e-01 1.631244830763361110e-14
2.565130260521041983e+00 -9.112744806309035495e-01 1.350732064548467716e-14
2.605210420841683305e+00 -8.858037369221966051e-01 9.267062877729739177e-13
2.645290581162324628e+00 -8.550402814979274346e-01 8.381214319863689903e-12
2.685370741482965951e+00 -8.192689850893587478e-01 3.532543699604507992e-11
2.725450901803607273e+00 -7.788158539529410618e-01 9.976905534983330445e-11
2.765531062124248596e+00 -7.340480407687873798e-01 2.168390830243823036e-10
2.805611222444889474e+00 -6.853747881326555103e-01 3.884974770070243792e-10
2.845691382765530797e+00 -6.332469218323467652e-01 5.965718886848938557e-10
2.885771543086172120e+00 -5.781569293610784310e-01 8.033713543671772862e-10
2.925851703406813442e+00 -5.206373215371353780e-01 9.601427410927487681e-10
2.965931863727454765e+00 -4.612589928273916895e-01 1.019449963329702912e-09
3.006012024048096087e+00 -4.006279145114273188e-01 9.466479951456161464e-10
3.046092184368737410e+00 -3.393818545439146184e-01 7.295756057362886031e-10
3.086172344689378733e+00 -2.781825555778798531e-01 3.950214298351736208e-10
3.126252505010020055e+00 -2.177124706547209354e-01 6.400348357452232649e-11
3.166332665330661378e+00 -1.586650317420673917e-01 1.205622461587404695e-10
3.206412825651302256e+00 -1.017361424304585038e-01 1.681992502847835477e-09
3.246492985971943579e+00 -4.761519325004746200e-02 7.810061468203273079e-09
3.286573146292584902e+00 3.025685269298344221e-03 2.645883742502804350e-08
3.326653306613226224e+00 4.954253906744143093e-02 7.729971861929771701e-08
3.366733466933867547e+00 9.133184176973822843e-02 2.068173113252854621e-07
3.406813627254508869e+00 1.278399544662870702e-01 5.201846829878212913e-07
3.446893787575150192e+00 1.585747532111855818e-01 1.245781861176723846e-06
3.486973947895791515e+00 1.831153872759710699e-01 2.860425290675250231e-06
3.527054108216432837e+00 2.011215584695684733e-01 6.323139433167864005e-06
3.567134268537074160e+00 2.123406496650374342e-01 1.349494809755771915e-05
3.607214428857715482e+00 2.166144350390351858e-01 2.786570452371294029e-05
3.647294589178356361e+00 2.138825075719122948e-01 5.576627839096373184e-05
3.687374749498997684e+00 2.041849940937741914e-01 1.083193290836631018e-04
3.727454909819639006e+00 1.876621634276690043e-01 2.044633144899304054e-04
3.767535070140280329e+00 1.645525907160118040e-01 3.754693598517057991e-04
3.807615230460921651e+00 1.351888240023898236e-01 6.714270478414826682e-04
3.847695390781562974e+00 9.999115183619738945e-02 1.170178769540283076e-03
3.887775551102204297e+00 5.945976458277272420e-02 1.989084688729200311e-03
3.927855711422845619e+00 1.416487975539977053e-02 3.299732743391428375e-03
3.967935871743486942e+00 -3.526371464902409991e-02 5.345266041690358190e-03
4.008016032064127820e+00 -8.814894126962649623e-02 8.459235401456889278e-03
4.048096192384769587e+00 -1.437783205932988972e-01 1.308400051258386092e-02
4.088176352705410466e+00 -2.014171480399964131e-01 1.978541845004866753e-02
4.128256513026052232e+00 -2.603205275438555955e-01 2.925953639499582343e-02
4.168336673346693111e+00 -3.197459112429943962e-01 4.232575483712189973e-02
4.208416833667334878e+00 -3.789640988600063154e-01 5.990074245715831108e-02
4.248496993987975756e+00 -4.372698487428074987e-01 8.294747279588260414e-02
4.288577154308616635e+00 -4.939909171834183654e-01 1.123958269426486994e-01
4.328657314629258401e+00 -5.484958936539935381e-01 1.490340766782250748e-01
4.368737474949899280e+00 -6.002007239199991240e-01 1.933756760040970801e-01
4.408817635270541047e+00 -6.485734398802138756e-01 2.455113770713489296e-01
4.448897795591181925e+00 -6.931380395609146872e-01 3.049633726074228446e-01
4.488977955911823692e+00 -7.334762762737671027e-01 3.705631933840928260e-01
4.529058116232464570e+00 -7.692291604684032835e-01 4.403790818986200173e-01
4.569138276553106337e+00 -8.000963691302961367e-01 5.117169105416433661e-01
4.609218436873747216e+00 -8.258359209396928247e-01 5.812153083915897467e-01
4.649298597194388982e+00 -8.462620092255108695e-01 6.450424613557441678e-01
4.689378757515029861e+00 -8.612435444312480648e-01 6.991910796548813645e-01
4.729458917835670739e+00 -8.707012809679846033e-01 7.398457030629965736e-01
4.769539078156312506e+00 -8.746059122799528796e-01 7.637858086845958905e-01
4.809619238476953385e+00 -8.729752647184512160e-01 7.687687006305595760e-01
4.849699398797595151e+00 -8.658724908660223596e-01 7.538380654870442399e-01
4.889779559118236030e+00 -8.534038785183386544e-01 7.195022833795547967e-01
4.929859719438877796e+00 -8.357174575640282654e-01 6.677471483748255165e-01
4.969939879759518675e+00 -8.130016709570073719e-01 6.018684004166252599e-01
5.010020040080160442e+00 -7.854844400237730451e-01 5.261389549619861494e-01
5.050100200400801320e+00 -7.534326237636523871e-01 4.453562786617462077e-01
5.090180360721443087e+00 -7.171513292918606508e-01 3.643316819534309081e-01
5.130260521042083965e+00 -6.769837997554224440e-01 2.874014147913325767e-01
5.170340681362724844e+00 -6.333105575793251951e-01 2.180258527694481085e-01
5.210420841683366611e+00 -5.865491547529491090e-01 1.585363803105318270e-01
5.250501002004007489e+00 -5.371526326880381452e-01 1.100515535220191882e-01
5.290581162324649256e+00 -4.856084739409767259e-01 7.256254133780937199e-02
5.330661322645290134e+00 -4.324358751329978601e-01 4.515098564081618943e-02
5.370741482965931901e+00 -3.781832732833946276e-01 2.628902420667952877e-02
5.410821643286572780e+00 -3.234240601646210522e-01 1.415925835803693612e-02
5.450901803607214546e+00 -2.687522235174000795e-01 6.940929415406529683e-03
5.490981963927855425e+00 -2.147763564005318038e-01 3.022730761341336711e-03
5.531062124248497192e+00 -1.621132505313971628e-01 1.124829343340387738e-03
5.571142284569138070e+00 -1.113803250067035705e-01 3.334454422804571886e-04
5.611222444889778949e+00 -6.318738953821055604e-02 6.757877855226399489e-05
5.651302605210420715e+00 -1.812792209455954193e-02 5.680024673523556855e-06
5.691382765531061594e+00 2.323040711031238575e-02 1.044809725398339351e-07
5.731462925851703361e+00 6.035488980623187477e-02 7.938840516148155725e-07
5.771543086172344239e+00 9.275759006410994045e-02 5.717369979826538892e-08
5.811623246492986006e+00 1.200040035465882865e-01 8.384650378510441903e-07
5.851703406813626884e+00 1.417221003981670724e-01 4.022462157674923341e-06
5.891783567134268651e+00 1.576094859094459011e-01 7.220186551779947883e-06
5.931863727454909530e+00 1.674405399446789178e-01 7.793438684476514407e-06
5.971943887775551296e+00 1.710711565594460748e-01 5.335922073535587344e-06
6.012024048096192175e+00 1.684429931361664523e-01 1.833642575653858054e-06
6.052104208416833053e+00 1.595851049661567433e-01 3.103719981155285053e-08
6.092184368737474820e+00 1.446146368018999817e-01 1.501319036031946427e-06
6.132264529058115698e+00 1.237350325531806072e-01 5.705525092463144713e-06
6.172344689378757465e+00 9.723294563678909486e-02 1.044138049181332628e-05
6.212424849699398344e+00 6.547313545844313243e-02 1.321157115575251967e-05
6.252505010020040110e+00 2.889186807740425078e-02 1.262252588209691447e-05
6.292585170340680989e+00 -1.201096417090324886e-02 9.056125530649700172e-06
6.332665330661322756e+00 -5.668121888121842311e-02 4.360631011712765691e-06
6.372745490981963634e+00 -1.045202816106064470e-01 8.447883420489125566e-07
6.412825651302604513e+00 -1.548961391975802182e-01 1.574788039017913809e-07
6.452905811623246279e+00 -2.071539749895285332e-01 2.603950356510618448e-06
6.492985971943887158e+00 -2.606276857564829852e-01 7.151115449670874290e-06
6.533066132264528925e+00 -3.146501857246824518e-01 1.201511355062185324e-05
6.573146292585169803e+00 -3.685641380443921422e-01 1.547757936724251661e-05
6.613226452905811570e+00 -4.217310020299116502e-01 1.653730703438128165e-05
6.653306613226452448e+00 -4.735399600627556715e-01 1.515372990115049849e-05
6.693386773547094215e+00 -5.234150195008333561e-01 1.206455870673472611e-05
6.733466933867735094e+00 -5.708214684618018175e-01 8.346769534189557596e-06
6.773547094188376860e+00 -6.152706857652161521e-01 4.961207997132677686e-06
6.813627254509017739e+00 -6.563238985304119533e-01 2.467133768577456824e-06
6.853707414829658617e+00 -6.935946947284048480e-01 9.732038000986288072e-07
6.893787575150300384e+00 -7.267502748491677655e-01 2.714400772245069979e-07
6.933867735470941263e+00 -7.555119714155223987e-01 3.946908600066850938e-08
6.973947895791583029e+00 -7.796545080261595428e-01 3.508689059635165538e-09
7.014028056112223908e+00 -7.990050514900052248e-01 9.010689502337781858e-09
7.054108216432865675e+00 -8.134411791415263604e-01 7.048061120959442434e-09
7.094188376753506553e+00 -8.228890871988993050e-01 1.139913398828245200e-09
7.134268537074148320e+00 -8.273210073716146251e-01 5.598422285441266666e-10
7.174348697394789198e+00 -8.267531646921395527e-01 2.966606632055487198e-09
7.214428857715430965e+00 -8.212432871803063694e-01 1.942368966524325977e-09
7.254509018036071843e+00 -8.108887658829644351e-01 3.025924906425485377e-10
7.294589178356712722e+00 -7.958246981220391536e-01 1.272510966160613892e-08
7.334669338677354489e+00 -7.762224868750061679e-01 5.458906932548586207e-08
7.374749498997995367e+00 -7.522885938670776929e-01 1.264589989580422269e-07
7.414829659318637134e+00 -7.242635694651736733e-01 2.071805906316914194e-07
7.454909819639278012e+00 -6.924214168009916737e-01 2.620339449397405819e-07
7.494989979959919779e+00 -6.570688139773906977e-01 2.618828099835919549e-07
7.535070140280560658e+00 -6.185447525697529425e-01 2.016465258972131674e-07
7.575150300601202424e+00 -5.772195436443496863e-01 1.069380748510492514e-07
7.615230460921843303e+00 -5.334942332609234894e-01 2.475362404521875505e-08
7.655310621242485070e+00 -4.877989050499844104e-01 3.349789094160386109e-09
7.695390781563125948e+00 -4.405913189993991841e-01 7.211579363257461976e-08
7.735470941883766827e+00 -3.923540542258818209e-01 2.315129451202156827e-07
7.775551102204408593e+00 -3.435918769584724863e-01 4.572336308176577498e-07
7.815631262525049472e+00 -2.948274083497902653e-01 7.154776829014689033e-07
7.855711422845691239e+00 -2.465968973616515514e-01 9.817051583406198265e-07
7.895791583166332117e+00 -1.994443319335071352e-01 1.255951394713874492e-06
7.935871743486973884e+00 -1.539155492375401391e-01 1.572645011124799821e-06
7.975951903807614762e+00 -1.105509967903029328e-01 2.009765825105667174e-06
8.016032064128255641e+00 -6.987842567155364004e-02 2.707963713121797970e-06
8.056112224448897408e+00 -3.240478813196336766e-02 3.913762005396887281e-06
8.096192384769539174e+00 1.391915619873098460e-03 6.062930497470629284e-06
8.136272545090179165e+00 3.107088601781186551e-02 9.922686334645176173e-06
8.176352705410820931e+00 5.623669501236387008e-02 1.681769589614276516e-05
8.216432865731462698e+00 7.654681362236871733e-02 2.897680616620378495e-05
8.256513026052104465e+00 9.171883683931342235e-02 5.005681531134595965e-05
8.296593186372744455e+00 1.015363957905581482e-01 8.592523819689286196e-05
8.336673346693386222e+00 1.058544862588762930e-01 1.458165019694314900e-04
8.376753507014027988e+00 1.046029878697836979e-01 2.440095878806999863e-04
8.416833667334669755e+00 9.778931482130946706e-02 4.022098937215938530e-04
8.456913827655309746e+00 8.549901505510050514e-02 6.528406758783192581e-04
8.496993987975951512e+00 6.789526674970877695e-02 1.043455894867015765e-03
8.537074148296593279e+00 4.521637853873943652e-02 1.642458017524640445e-03
8.577154308617233269e+00 1.777204979168706123e-02 2.546221757262202585e-03
8.617234468937875036e+00 -1.406201798259722538e-02 3.887589437699939549e-03
8.657314629258516803e+00 -4.985076017540234633e-02 5.845449965727203892e-03
8.697394789579158569e+00 -8.910745249535177714e-02 8.654834585300001312e-03
8.737474949899798560e+00 -1.313025404780299721e-01 1.261647696753586539e-02
8.777555110220440326e+00 -1.758728075399057789e-01 1.810442023334186273e-02
8.817635270541082093e+00 -2.222314242519109750e-01 2.556957759688000334e-02
8.857715430861723860e+00 -2.697775881941927856e-01 3.553695254817051258e-02
8.897795591182363850e+00 -3.179067128592360514e-01 4.859360030725360519e-02
8.937875751503005617e+00 -3.660195574515088257e-01 6.536487224290637998e-02
8.977955911823647384e+00 -4.135315315940483738e-01 8.647637816255987486e-02
9.018036072144287374e+00 -4.598804887481445780e-01 1.125008203062155682e-01
9.058116232464929141e+00 -5.045343275251467086e-01 1.438897455122641333e-01
9.098196392785570907e+00 -5.469968872660000425e-01 1.808934692196060290e-01
9.138276553106212674e+00 -5.868133364317714706e-01 2.234743035242300890e-01
9.178356713426852664e+00 -6.235739301392886347e-01 2.712221277193695435e-01
9.218436873747494431e+00 -6.569170320985634470e-01 3.232831187425948549e-01
9.258517034068136198e+00 -6.865308098985407614e-01 3.783150160670571416e-01
9.298597194388777964e+00 -7.121540809130275651e-01 4.344817888616222534e-01
9.338677354709417955e+00 -7.335762753271329872e-01 4.894993610253821070e-01
9.378757515030059722e+00 -7.506365703962852853e-01 5.407391063345365900e-01
9.418837675350701488e+00 -7.632226158381035797e-01 5.853900553111156535e-01
9.458917835671341479e+00 -7.712685715540228415e-01 6.206713917903466937e-01
9.498997995991983245e+00 -7.747531551057592614e-01 6.440791684396256489e-01
9.539078156312625012e+00 -7.736972158570378788e-01 6.536411412158485978e-01
9.579158316633266779e+00 -7.681616193764990719e-01 6.481499105380227332e-01
9.619238476953906769e+00 -7.582448921828214283e-01 6.273402909139529360e-01
9.659318637274548536e+00 -7.440813193980220230e-01 5.919824242930608049e-01
9.699398797595190302e+00 -7.258390080267522748e-01 5.438685533923960369e-01
9.739478957915832069e+00 -7.037183743259816104e-01 4.856860747661100319e-01
9.779559118236472059e+00 -6.779507407509207662e-01 4.207851303904655560e-01
9.819639278557113826e+00 -6.487971692458931461e-01 3.528646827684512322e-01
9.859719438877755593e+00 -6.165474732188274132e-01 2.856171637739638447e-01
9.899799599198395583e+00 -5.815191551450286100e-01 2.223763864979463323e-01
9.939879759519037350e+00 -5.440565233068518358e-01 1.658194072290749832e-01
9.979959919839679117e+00 -5.045293549681676426e-01 1.177595888574583527e-01
1.002004008016032088e+01 -4.633316926386421009e-01 7.906012819065615094e-02
1.006012024048096087e+01 -4.208798054802488919e-01 4.967123309963797362e-02
1.010020040080160264e+01 -3.776102227044440540e-01 2.877971117012451119e-02
1.014028056112224441e+01 -3.339766188667441793e-01 1.503668631076221680e-02
1.018036072144288617e+01 -2.904467276159828915e-01 6.822077145735393547e-03
1.022044088176352616e+01 -2.474979267844047148e-01 2.498752006238938103e-03
1.026052104208416793e+01 -2.056128519146845079e-01 6.176213079888059551e-04
1.030060120240480970e+01 -1.652736825908791563e-01 4.744457371763426080e-05
1.034068136272544969e+01 -1.269565140909027223e-01 2.134263804566595706e-05
1.038076152304609145e+01 -9.112461006282360221e-02 1.093503528824678095e-04
1.042084168336673322e+01 -5.822185239399590290e-02 1.398162890359778954e-04
1.046092184368737499e+01 -2.866547974304303401e-02 9.904382077602316323e-05
1.050100200400801498e+01 -2.839175322990985292e-03 3.741533507579438155e-05
