# time correlation overlap_with_initial
0.000000000000000000e+00 -1.000000000000000000e+00 1.000000000000000000e+00
4.008016032064128098e-02 -9.968055838191409723e-01 9.857143071012891555e-01
8.016032064128256196e-02 -9.872427581431592047e-01 9.440262430695960383e-01
1.202404809619238429e-01 -9.713731355171966175e-01 8.782907207829514507e-01
1.603206412825651239e-01 -9.493008192119649635e-01 7.936192847024782226e-01
2.004008016032063910e-01 -9.211734267486855199e-01 6.962431415023483394e-01
2.404809619238476859e-01 -8.871844522298723001e-01 5.927815222148651308e-01
2.805611222444889807e-01 -8.475749242940900929e-01 4.895243895426818481e-01
3.206412825651302478e-01 -8.026363648864157652e-01 3.918398452634834772e-01
3.607214428857715149e-01 -7.527123865603324582e-01 3.037715645025673150e-01
4.008016032064127820e-01 -6.982012628228403406e-01 2.278636030897112918e-01
4.408817635270541047e-01 -6.395567233983442401e-01 1.651972977606680493e-01
4.809619238476953718e-01 -5.772890620893320612e-01 1.155999793693412853e-01
5.210420841683366389e-01 -5.119643167196923361e-01 7.795926543925206509e-02
5.611222444889779615e-01 -4.442029012249698039e-01 5.057620476499387341e-02
6.012024048096191731e-01 -3.746764307784822834e-01 3.149700309021149364e-02
6.412825651302604957e-01 -3.041031079670666881e-01 1.878224610378933027e-02
6.813627254509018183e-01 -2.332417036386353060e-01 1.069274098081957058e-02
7.214428857715430299e-01 -1.628833370373472533e-01 5.790962421645579755e-03
7.615230460921843525e-01 -9.384252539627523093e-02 2.970779603665379184e-03
8.016032064128255641e-01 -2.694554285647454001e-02 1.436076863156285051e-03
8.416833667334668867e-01 3.698104850874813637e-02 6.499202505075617545e-04
8.817635270541082093e-01 9.712467101078339771e-02 2.731363793452061214e-04
9.218436873747494209e-01 1.526997917745712974e-01 1.054823912354570128e-04
9.619238476953907435e-01 2.029634750135091703e-01 3.691868636068500393e-05
1.002004008016031955e+00 2.472286790302001824e-01 1.149078742214097472e-05
1.042084168336673278e+00 2.848793343322678639e-01 3.095454674126056246e-06
1.082164328657314600e+00 3.153822808567903202e-01 6.926029115084660625e-07
1.122244488977955923e+00 3.382999728678129925e-01 1.201720810676916985e-07
1.162324649298597246e+00 3.532994775810421317e-01 1.416852174110784474e-08
1.202404809619238346e+00 3.601610780168646442e-01 8.078230363566674878e-10
1.242484969939879669e+00 3.587830541021007069e-01 2.259905043495209365e-12
1.282565130260520991e+00 3.491849351595777695e-01 4.163471778609862282e-12
1.322645290581162314e+00 3.315073289653323041e-01 1.755480293166659222e-13
1.362725450901803637e+00 3.060092935938498182e-01 5.389194825726059129e-15
1.402805611222444737e+00 2.730631734303825553e-01 8.147650163214285419e-13
1.442885771543086060e+00 2.331463873371595052e-01 3.283189501007870283e-12
1.482965931863727382e+00 1.868319403957447167e-01 2.149551812367213379e-12
1.523046092184368705e+00 1.347757060405234686e-01 1.291038898228318817e-13
1.563126252505010028e+00 7.770386940183017510e-02 8.126865877248502810e-12
1.603206412825651128e+00 1.639736846574563200e-02 2.474226310160491881e-11
1.643286573146292451e+00 -4.832212186436539436e-02 3.261805434699450632e-11
1.683366733466933773e+00 -1.156086336161268463e-01 2.084260395892974260e-11
1.723446893787575096e+00 -1.846057096201448033e-01 2.799477941521581010e-12
1.763527054108216419e+00 -2.544618194254093524e-01 5.412266846088880561e-12
1.803607214428857741e+00 -3.243425005572160291e-01 4.119594342461709031e-11
1.843687374749498842e+00 -3.934431784664007559e-01 9.328578676996741724e-11
1.883767535070140164e+00 -4.609986278417682604e-01 1.282293478059028879e-10
1.923847695390781487e+00 -5.262921955738248947e-01 1.233624225412570939e-10
1.963927855711422810e+00 -5.886620870744345702e-01 8.367927908288597194e-11
2.004008016032063910e+00 -6.475066781724168052e-01 3.548257557571526679e-11
2.044088176352705233e+00 -7.022876402534901086e-01 5.104751464817473784e-12
2.084168336673346555e+00 -7.525316551243681484e-01 1.467850483777170790e-12
2.124248496993987878e+00 -7.978308441520919336e-01 1.459438954434251165e-11
2.164328657314629201e+00 -8.378416627850313603e-01 2.751015466123419609e-11
2.204408817635270523e+00 -8.722834044798114528e-01 2.960617441385251278e-11
2.244488977955911846e+00 -9.009353116516749527e-01 2.151253445839947261e-11
2.284569138276553169e+00 -9.236340472446170624e-01 1.052927741777942600e-11
2.324649298597194491e+00 -9.402701084684257360e-01 2.987299853349429913e-12
2.364729458917835370e+00 -9.507851035993375444e-01 2.455249124854233715e-13
2.404809619238476692e+00 -9.551684192684256614e-01 6.821628412826724202e-14
2.444889779559118015e+00 -9.534549421450204676e-01 1.795966752893056228e-13
2.484969939879759337e+00 -9.457226584118457735e-01 4.989908191776907170e-14
2.525050100200400660e+00 -9.320911701219058987e-01 4.628917572630775517e-16
2.565130260521041983e+00 -9.127205558771430693e-01 1.104965254774230250e-14
2.605210420841683305e+00 -8.878107057999763407e-01 9.507280767947527466e-13
2.645290581162324628e+00 -8.576014045814389641e-01 8.194860030237645938e-12
2.685370741482965951e+00 -8.223722004852040968e-01 3.439948376413374401e-11
2.725450901803607273e+00 -7.824433390048292081e-01 9.758986496688526084e-11
2.765531062124248596e+00 -7.381756362282569928e-01 2.134780225231358554e-10
2.805611222444889474e+00 -6.899716373626516575e-01 3.851036625101547515e-10
2.845691382765530797e+00 -6.382748195632749200e-01 5.954515053187938885e-10
2.885771543086172120e+00 -5.835702080489485466e-01 8.075343624014077710e-10
2.925851703406813442e+00 -5.263822129873509947e-01 9.725807409666055795e-10
2.965931863727454765e+00 -4.672739284120342451e-01 1.042541860526293265e-09
3.006012024048096087e+00 -4.068430227385115838e-01 9.818675399422907554e-10
3.046092184368737410e+00 -3.457196707177539463e-01 7.768921956488526208e-10
3.086172344689378733e+00 -2.845581558044704695e-01 4.494119184624627067e-10
3.126252505010020055e+00 -2.240347627144821663e-01 1.020773230089372830e-10
3.166332665330661378e+00 -1.648364382940897543e-01 5.912628148784544284e-11
3.206412825651302256e+00 -1.076550669708310065e-01 1.263581535256727918e-09
3.246492985971943579e+00 -5.317677996762227438e-02 6.306738599719697491e-09
3.286573146292584902e+00 -2.072730307586586468e-03 2.194552979739074059e-08
3.326653306613226224e+00 4.501337572798808778e-02 6.496534549212090847e-08
3.366733466933867547e+00 8.747523286293835965e-02 1.752049095968903540e-07
3.406813627254508869e+00 1.247548263489383774e-01 4.432159437483257310e-07
3.446893787575150192e+00 1.563530889472435625e-01 1.066507932356859270e-06
3.486973947895791515e+00 1.818410341731277191e-01 2.459372059160075340e-06
3.527054108216432837e+00 2.008672344188844328e-01 5.458773554567976816e-06
3.567134268537074160e+00 2.131667172519577658e-01 1.169625239792602824e-05
3.607214428857715482e+00 2.185669201188782940e-01 2.424492490363699924e-05
3.647294589178356361e+00 2.169919983699235277e-01 4.870476904345347137e-05
3.687374749498997684e+00 2.084654200553036629e-01 9.495853520603657468e-05
3.727454909819639006e+00 1.931102601552663611e-01 1.799103957149646789e-04
3.767535070140280329e+00 1.711475494926327501e-01 3.316018966832694095e-04
3.807615230460921651e+00 1.428924562342226978e-01 5.951631400733752150e-04
3.847695390781562974e+00 1.087484136641067994e-01 1.041073108397199201e-03
3.887775551102204297e+00 6.919966471718232148e-02 1.776131262475752958e-03
3.927855711422845619e+00 2.480175470687905059e-02 2.957318242997859260e-03
3.967935871743486942e+00 -2.382860945411521825e-02 4.808332125289992154e-03
4.008016032064127820e+00 -7.602564007161570492e-02 7.637897545197604339e-03
4.048096192384769587e+00 -1.310860231657927089e-01 1.185812598809096209e-02
4.088176352705410466e+00 -1.882822171854343085e-01 1.799997330967835832e-02
4.128256513026052232e+00 -2.468740417735685866e-01 2.672187420578783432e-02
4.168336673346693111e+00 -3.061217717463939891e-01 3.880625520659426730e-02
4.208416833667334878e+00 -3.652964971178859210e-01 5.513849467230457629e-02
4.248496993987975756e+00 -4.236917494534851447e-01 7.666244127742888326e-02
4.288577154308616635e+00 -4.806316777296361642e-01 1.043088276824052085e-01
4.328657314629258401e+00 -5.354802857929149562e-01 1.388946984175443988e-01
4.368737474949899280e+00 -5.876468984816279884e-01 1.809975104783080879e-01
4.408817635270541047e+00 -6.365925358966719738e-01 2.308118791771681666e-01
4.448897795591181925e+00 -6.818326088734415480e-01 2.880043411621547311e-01
4.488977955911823692e+00 -7.229404188300890821e-01 3.515861749637563816e-01
4.529058116232464570e+00 -7.595474349767610267e-01 4.198287172128958855e-01
4.569138276553106337e+00 -7.913443053274297201e-01 4.902461231168566691e-01
4.609218436873747216e+00 -8.180793623000254255e-01 5.596657044429436123e-01
4.649298597194388982e+00 -8.395578012075228802e-01 6.243986054907606498e-01
4.689378757515029861e+00 -8.556391977518389425e-01 6.805074445341530165e-01
4.729458917835670739e+00 -8.662356258972443435e-01 7.241541651164801197e-01
4.769539078156312506e+00 -8.713089440382005835e-01 7.519909259587300721e-01
4.809619238476953385e+00 -8.708685873241789333e-01 7.615468041806390254e-01
4.849699398797595151e+00 -8.649692093593894793e-01 7.515528081804034866e-01
4.889779559118236030e+00 -8.537087250498567315e-01 7.221524383640808287e-01
4.929859719438877796e+00 -8.372266281445274183e-01 6.749558616772119990e-01
4.969939879759518675e+00 -8.157026109506818612e-01 6.129182949851635920e-01
5.010020040080160442e+00 -7.893555816573172290e-01 5.400504600556143009e-01
5.050100200400801320e+00 -7.584428949989231450e-01 4.609972782083746612e-01
5.090180360721443087e+00 -7.232598155838628751e-01 3.805440454133652284e-01
5.130260521042083965e+00 -6.841391209828053821e-01 3.031232302007099144e-01
5.170340681362724844e+00 -6.414505370719351118e-01 2.323932266706056071e-01
5.210420841683366611e+00 -5.956002714374850626e-01 1.709489901004514478e-01
5.250501002004007489e+00 -5.470298207171127025e-01 1.201964774523769375e-01
5.290581162324649256e+00 -4.962148903886439144e-01 8.039619978140791212e-02
5.330661322645290134e+00 -4.436629662371148197e-01 5.084809583245530201e-02
5.370741482965931901e+00 -3.899110939177541924e-01 3.017135154165538277e-02
5.410821643286572780e+00 -3.355217245701873630e-01 1.661934461982627828e-02
5.450901803607214546e+00 -2.810789641265248329e-01 8.374224824513071957e-03
5.490981963927855425e+00 -2.271824359027493356e-01 3.777663282283610230e-03
5.531062124248497192e+00 -1.744418474723836432e-01 1.474817114797477308e-03
5.571142284569138070e+00 -1.234689309828479881e-01 4.698245876486412619e-04
5.611222444889778949e+00 -7.487047929062530527e-02 1.082851010440410381e-04
5.651302605210420715e+00 -2.923878086090435022e-02 1.289039294121978979e-05
5.691382765531061594e+00 1.285640237966516330e-02 4.348721833902486525e-08
5.731462925851703361e+00 5.087815329106695067e-02 7.807196379884664579e-07
5.771543086172344239e+00 8.433072650610937138e-02 2.335162165398582761e-07
5.811623246492986006e+00 1.127696150977102324e-01 3.540267968971351302e-07
5.851703406813626884e+00 1.358092427642448030e-01 3.008539405725054887e-06
5.891783567134268651e+00 1.531316590707036407e-01 6.479585312598430315e-06
5.931863727454909530e+00 1.644926085341567035e-01 7.904273992088417918e-06
5.971943887775551296e+00 1.697277915685424798e-01 6.162974000307263565e-06
6.012024048096192175e+00 1.687564316432507427e-01 2.690302618215517650e-06
6.052104208416833053e+00 1.615842737207731084e-01 2.120837512964587044e-07
6.092184368737474820e+00 1.483040302208435135e-01 7.637941020638789793e-07
6.132264529058115698e+00 1.290946731421286076e-01 4.402692547423992050e-06
6.172344689378757465e+00 1.042185116832350100e-01 9.282775929714696451e-06
6.212424849699398344e+00 7.401680960750510463e-02 1.283880892864798528e-05
6.252505010020040110e+00 3.890367092038734403e-02 1.325686532479192675e-05
6.292585170340680989e+00 -6.415000044264840620e-04 1.039925547917590383e-05
6.332665330661322756e+00 -4.408272281413162796e-02 5.769534448659648940e-06
6.372745490981963634e+00 -9.083721611356128378e-02 1.659991802463667849e-06
6.412825651302604513e+00 -1.402858252401158190e-01 7.575288037684233597e-09
6.452905811623246279e+00 -1.917838620418821360e-01 1.544527758968096078e-06
6.492985971943887158e+00 -2.446721421204980651e-01 5.597745044371405441e-06
6.533066132264528925e+00 -2.982876600093833375e-01 1.053107677668822728e-05
6.573146292585169803e+00 -3.519741295614442489e-01 1.453228882696267464e-05
6.613226452905811570e+00 -4.050913933334713835e-01 1.634478479238976018e-05
6.653306613226452448e+00 -4.570245174162634871e-01 1.564339101706081436e-05
6.693386773547094215e+00 -5.071911178624822769e-01 1.296921414258164494e-05
6.733466933867735094e+00 -5.550483508567296553e-01 9.344824103552372801e-06
6.773547094188376860e+00 -6.000977203106548918e-01 5.802215152914904872e-06
6.813627254509017739e+00 -6.418896655769035231e-01 3.033838830669608031e-06
6.853707414829658617e+00 -6.800258206220562984e-01 1.273819655289553792e-06
6.893787575150300384e+00 -7.141612657684792698e-01 3.868679931219411873e-07
6.933867735470941263e+00 -7.440045693320598286e-01 6.286754429199640175e-08
6.973947895791583029e+00 -7.693180740960644526e-01 4.966195017009315280e-10
7.014028056112223908e+00 -7.899163108665431254e-01 7.779604323024531429e-09
7.054108216432865675e+00 -8.056648885546803252e-01 1.017698749448274839e-08
7.094188376753506553e+00 -8.164779930296510724e-01 3.373817738564969955e-09
7.134268537074148320e+00 -8.223165193512315119e-01 3.364440468208129872e-12
7.174348697394789198e+00 -8.231853521685879027e-01 2.099073120973037073e-09
7.214428857715430965e+00 -8.191313219836438009e-01 2.703880981491458959e-09
7.254509018036071843e+00 -8.102408227373172345e-01 1.255924887111172895e-10
7.294589178356712722e+00 -7.966380144093260229e-01 5.601374444894477721e-09
7.334669338677354489e+00 -7.784831049618770038e-01 3.626185517503037949e-08
7.374749498997995367e+00 -7.559709974370650842e-01 9.943354088937853417e-08
7.414829659318637134e+00 -7.293302930628209335e-01 1.813629983288843383e-07
7.454909819639278012e+00 -6.988223381029328163e-01 2.500698680337872041e-07
7.494989979959919779e+00 -6.647407413255729258e-01 2.717713080917694398e-07
7.535070140280560658e+00 -6.274105601748403149e-01 2.312012284312456361e-07
7.575150300601202424e+00 -5.871879136453108661e-01 1.433829580672252603e-07
7.615230460921843303e+00 -5.444588986613769777e-01 4.979805486478717239e-08
7.655310621242485070e+00 -4.996387541541278954e-01 9.547145024333470814e-10
7.695390781563125948e+00 -4.531700450636016453e-01 3.482622820441533154e-08
7.735470941883766827e+00 -4.055208183520549459e-01 1.622681898012211487e-07
7.775551102204408593e+00 -3.571816439191739523e-01 3.660753931757543307e-07
7.815631262525049472e+00 -3.086623119903217360e-01 6.129971051345149501e-07
7.855711422845691239e+00 -2.604874633993503608e-01 8.721864200171832946e-07
7.895791583166332117e+00 -2.131916002444902702e-01 1.132183925320649578e-06
7.935871743486973884e+00 -1.673132637812818346e-01 1.412172761154931626e-06
7.975951903807614762e+00 -1.233884208849950759e-01 1.769600121656264060e-06
8.016032064128255641e+00 -8.194342524527364890e-02 2.312638129518059145e-06
8.056112224448897408e+00 -4.348715853906047479e-02 3.230138883317319628e-06
8.096192384769539174e+00 -8.503288438307866903e-03 4.853863076356771670e-06
8.136272545090179165e+00 2.255816605709861505e-02 7.769478087165548912e-06
8.176352705410820931e+00 4.928854096440679622e-02 1.299696775583329180e-05
8.216432865731462698e+00 7.132865753477855841e-02 2.227034189679713718e-05
8.256513026052104465e+00 8.837562810838839322e-02 3.846193076104397905e-05
8.296593186372744455e+00 1.001897151319747076e-01 6.621977658307352018e-05
8.336673346693386222e+00 1.065993771162695031e-01 1.129143559440203758e-04
8.376753507014027988e+00 1.075059533398168149e-01 1.900254494677687468e-04
8.416833667334669755e+00 1.028862371570967021e-01 3.151314050232692792e-04
8.456913827655309746e+00 9.279429684599452277e-02 5.146943506547712807e-04
8.496993987975951512e+00 7.736113501918515101e-02 8.278471779632373987e-04
8.537074148296593279e+00 5.679329143053726131e-02 1.311378467352505416e-03
8.577154308617233269e+00 3.136950257382799256e-02 2.046061051519906457e-03
8.617234468937875036e+00 1.436137027143769094e-03 3.144351601941499340e-03
8.657314629258516803e+00 -3.259885016160204291e-02 4.759322241980033959e-03
8.697394789579158569e+00 -7.027319210561595864e-02 7.094377607482595278e-03
8.737474949899798560e+00 -1.110784255568463136e-01 1.041300939733709463e-02
8.777555110220440326e+00 -1.544690780300022326e-01 1.504730256280108203e-02
8.817635270541082093e+00 -1.998719749336258511e-01 2.140356524864326163e-02
8.857715430861723860e+00 -2.466963255985452630e-01 2.996277385147344194e-02
8.897795591182363850e+00 -2.943432383490042770e-01 4.127344272417901583e-02
8.937875751503005617e+00 -3.422156331591729717e-01 5.593401029196379270e-02
8.977955911823647384e+00 -3.897270259021279881e-01 7.456253687973159183e-02
9.018036072144287374e+00 -4.363102979848134111e-01 9.775165598836547953e-02
9.058116232464929141e+00 -4.814249913477844367e-01 1.260087452357779858e-01
9.098196392785570907e+00 -5.245642039466206219e-01 1.596825001401243616e-01
9.138276553106212674e+00 -5.652599138420677516e-01 1.988804613764934837e-01
9.178356713426852664e+00 -6.030875958190133890e-01 2.433840763168381993e-01
9.218436873747494431e+00 -6.376694106692105679e-01 2.925715107067442533e-01
9.258517034068136198e+00 -6.686764952396900830e-01 3.453598501788947561e-01
9.298597194388777964e+00 -6.958301514101047358e-01 4.001800610245163092e-01
9.338677354709417955e+00 -7.189020885748723666e-01 4.549965646122337559e-01
9.378757515030059722e+00 -7.377139833630671495e-01 5.073809888522667899e-01
9.418837675350701488e+00 -7.521361864487438043e-01 5.546434425813335789e-01
9.458917835671341479e+00 -7.620861742236497705e-01 5.940183161895096209e-01
9.498997995991983245e+00 -7.675263426603571304e-01 6.228916401924431412e-01
9.539078156312625012e+00 -7.684619120990835439e-01 6.390501257110310362e-01
9.579158316633266779e+00 -7.649384181512526304e-01 6.409229292769539343e-01
9.619238476953906769e+00 -7.570395625238645065e-01 6.277856395215589691e-01
9.659318637274548536e+00 -7.448848899132819446e-01 5.998941815949243583e-01
9.699398797595190302e+00 -7.286279226161902489e-01 5.585244250097723961e-01
9.739478957915832069e+00 -7.084543145592646640e-01 5.059022728185703643e-01
9.779559118236472059e+00 -6.845803998397683721e-01 4.450246345674606641e-01
9.819639278557113826e+00 -6.572518820797917938e-01 3.793880149798146140e-01
9.859719438877755593e+00 -6.267427085316339408e-01 3.126551715916505159e-01
9.899799599198395583e+00 -5.933541294555250145e-01 2.483041983392920427e-01
9.939879759519037350e+00 -5.574136219530382297e-01 1.893048583102123483e-01
9.979959919839679117e+00 -5.192739808927522294e-01 1.378690348485692996e-01
1.002004008016032088e+01 -4.793118962249656723e-01 9.530521078292232551e-02
1.006012024048096087e+01 -4.379266453900497735e-01 6.199616249751697949e-02
1.010020040080160264e+01 -3.955378992133134486e-01 3.749297646182882249e-02
1.014028056112224441e+01 -3.525835930633230975e-01 2.070482961360960161e-02
1.018036072144288617e+01 -3.095166088969191764e-01 1.014491812723799027e-02
1.022044088176352616e+01 -2.668015095688301419e-01 4.189466749692420319e-03
1.026052104208416793e+01 -2.249099101947909518e-01 1.306209941071967764e-03
1.030060120240480970e+01 -1.843159509603726487e-01 2.202958122096661318e-04
1.034068136272544969e+01 -1.454904046787892924e-01 5.157919717409502147e-07
1.038076152304609145e+01 -1.088950072559369958e-01 6.674916793379616266e-05
1.042084168336673322e+01 -7.497561112896969360e-02 1.349733473019516935e-04
1.046092184368737499e+01 -4.415574755302989485e-02 1.262074243477856765e-04
1.050100200400801498e+01 -1.682938017648894294e-02 6.840925280325089617e-05
