# time correlation overlap_with_initial
0.000000000000000000e+00 -7.647058823529411242e-01 1.000000000000000000e+00
4.008016032064128098e-02 -7.622503243551654872e-01 9.888150719266309840e-01
8.016032064128256196e-02 -7.548994286402022080e-01 9.559704669403690236e-01
1.202404809619238429e-01 -7.427007705044337271e-01 9.035258540071329225e-01
1.603206412825651239e-01 -7.257343138223835144e-01 8.346863948428753233e-01
2.004008016032063910e-01 -7.041135184024414073e-01 7.534930675681962287e-01
2.404809619238476859e-01 -6.779862987282212483e-01 6.644453983044756873e-01
2.805611222444889807e-01 -6.475361913862266450e-01 5.721052195984877020e-01
3.206412825651302478e-01 -6.129841121872653398e-01 4.807292772145000948e-01
3.607214428857715149e-01 -5.745895552680031493e-01 3.939666299422182050e-01
4.008016032064127820e-01 -5.326512496570899868e-01 3.146497612631835028e-01
4.408817635270541047e-01 -4.875083655834943630e-01 2.446935538068005511e-01
4.809619238476953718e-01 -4.395408779402911748e-01 1.850958120666802431e-01
5.210420841683366389e-01 -3.891679370860587350e-01 1.360275274408338231e-01
5.611222444889779615e-01 -3.368474446264934086e-01 9.698443364080877593e-02
6.012024048096191731e-01 -2.830723291077325565e-01 6.697416409271453319e-02
6.412825651302604957e-01 -2.283704536542039976e-01 4.470933811296160659e-02
6.813627254509018183e-01 -1.732960611922556016e-01 2.878583506894853358e-02
7.214428857715430299e-01 -1.184271002691717617e-01 1.782634653017332871e-02
7.615230460921843525e-01 -6.435761170599171854e-02 1.058357063031523451e-02
8.016032064128255641e-01 -1.168981094525994337e-02 6.000141599542014627e-03
8.416833667334668867e-01 3.897409657289533508e-02 3.232462195108704982e-03
8.817635270541082093e-01 8.703968754523030982e-02 1.644731828285860226e-03
9.218436873747494209e-01 1.319337541345613207e-01 7.843051633287256592e-04
9.619238476953907435e-01 1.731096099612321193e-01 3.469777682218668120e-04
1.002004008016031955e+00 2.100612301422238037e-01 1.404925189427424115e-04
1.042084168336673278e+00 2.423300042762615847e-01 5.108241829994945729e-05
1.082164328657314600e+00 2.695160681759025678e-01 1.622147522322513039e-05
1.122244488977955923e+00 2.912851449759216171e-01 4.304153271611351766e-06
1.162324649298597246e+00 3.073759932785813387e-01 8.833640345432394578e-07
1.202404809619238346e+00 3.176077128253506077e-01 1.191872830648092979e-07
1.242484969939879669e+00 3.218819505203334708e-01 6.414141232113601395e-09
1.282565130260520991e+00 3.201869534856972566e-01 2.966280453219559262e-11
1.322645290581162314e+00 3.125977623413732087e-01 1.188266038474427396e-10
1.362725450901803637e+00 2.992748548763304872e-01 2.625107530039586426e-11
1.402805611222444737e+00 2.804621918176553041e-01 2.046676321127986966e-10
1.442885771543086060e+00 2.564806483328863074e-01 6.770919226651813957e-11
1.482965931863727382e+00 2.277243758973541421e-01 8.584733397723468918e-11
1.523046092184368705e+00 1.946512239450231829e-01 8.656981404107809996e-10
1.563126252505010028e+00 1.577743751786511717e-01 1.867739500846141091e-09
1.603206412825651128e+00 1.176526473321892613e-01 1.966371099762432532e-09
1.643286573146292451e+00 7.488033555376795436e-02 9.349364568082204448e-10
1.683366733466933773e+00 3.007626283199370601e-02 1.453042397278334707e-11
1.723446893787575096e+00 -1.612700465080239495e-02 9.511978182854256006e-10
1.763527054108216419e+00 -6.309313949818212697e-02 4.418732727007672545e-09
1.803607214428857741e+00 -1.101922666274781082e-01 9.207661687956195843e-09
1.843687374749498842e+00 -1.568105485072670280e-01 1.285431425529235672e-08
1.883767535070140164e+00 -2.023578898094102740e-01 1.324052232406099079e-08
1.923847695390781487e+00 -2.462754629783043270e-01 1.003310116099831872e-08
1.963927855711422810e+00 -2.880423939181928072e-01 4.988811020457922902e-09
2.004008016032063910e+00 -3.271803127979404646e-01 9.484909260652657174e-10
2.044088176352705233e+00 -3.632573596712793673e-01 1.805448739913572682e-10
2.084168336673346555e+00 -3.958914843754061663e-01 3.093478125596301449e-09
2.124248496993987878e+00 -4.247520774606116101e-01 8.060872958718015688e-09
2.164328657314629201e+00 -4.495608168514795278e-01 1.240098624475985160e-08
2.204408817635270523e+00 -4.700921952685612748e-01 1.389166087917348876e-08
2.244488977955911846e+00 -4.861731418789987380e-01 1.193038966795691411e-08
2.284569138276553169e+00 -4.976818582984107731e-01 7.707917127768144107e-09
2.324649298597194491e+00 -5.045467920821246066e-01 3.361738377649787390e-09
2.364729458917835370e+00 -5.067452233400631112e-01 6.573795215217764674e-10
2.404809619238476692e+00 -5.043014724330214804e-01 7.388808798896670725e-12
2.444889779559118015e+00 -4.972853846382800369e-01 4.322200241948742355e-10
2.484969939879759337e+00 -4.858106871652085879e-01 5.429829165604293650e-10
2.525050100200400660e+00 -4.700333792852774972e-01 4.448628573989900293e-11
2.565130260521041983e+00 -4.501503246225009858e-01 9.337749249422616463e-10
2.605210420841683305e+00 -4.263976997929799229e-01 7.660001253684571817e-09
2.645290581162324628e+00 -3.990495428262054722e-01 2.597265254403677022e-08
2.685370741482965951e+00 -3.684164467962670053e-01 6.079861726575689260e-08
2.725450901803607273e+00 -3.348438415917869282e-01 1.139724849394698565e-07
2.765531062124248596e+00 -2.987100114653946648e-01 1.827839209743920851e-07
2.805611222444889474e+00 -2.604243769797730534e-01 2.600238137095531831e-07
2.845691382765530797e+00 -2.204248945325572029e-01 3.356782934084614166e-07
2.885771543086172120e+00 -1.791747502915269630e-01 3.997956229868091801e-07
2.925851703406813442e+00 -1.371593590726451761e-01 4.456069419358663205e-07
2.965931863727454765e+00 -9.488222753317798741e-02 4.719702468620593673e-07
3.006012024048096087e+00 -5.285979674677176998e-02 4.845508147204191729e-07
3.046092184368737410e+00 -1.161647778161847312e-02 4.959217998892820746e-07
3.086172344689378733e+00 2.832120301528709416e-02 5.259397368011967702e-07
3.126252505010020055e+00 6.643153118905516241e-02 6.052994056216275400e-07
3.166332665330661378e+00 1.022044863712149448e-01 7.873656290133505249e-07
3.206412825651302256e+00 1.351484818019706990e-01 1.176708438363539558e-06
3.246492985971943579e+00 1.647994778385571957e-01 1.988293291717343731e-06
3.286573146292584902e+00 1.907269680650180987e-01 3.658778576558477852e-06
3.326653306613226224e+00 2.125421460452149580e-01 7.044879862256215706e-06
3.366733466933867547e+00 2.299052412715291704e-01 1.376108577123068985e-05
3.406813627254508869e+00 2.425311363297641964e-01 2.673421118886775658e-05
3.446893787575150192e+00 2.501962142049693472e-01 5.108282198024679703e-05
3.486973947895791515e+00 2.527424570400256254e-01 9.547101654740771206e-05
3.527054108216432837e+00 2.500815699430951056e-01 1.741254690360634241e-04
3.567134268537074160e+00 2.421971044242766657e-01 3.097443514327406365e-04
3.607214428857715482e+00 2.291457633062713162e-01 5.375559807728577839e-04
3.647294589178356361e+00 2.110565782264280654e-01 9.107782221681277532e-04
3.687374749498997684e+00 1.881293782880839316e-01 1.507694948017617711e-03
3.727454909819639006e+00 1.606318048747439331e-01 2.440448020423446364e-03
3.767535070140280329e+00 1.288934659294124208e-01 3.865415352626671002e-03
3.807615230460921651e+00 9.330154453608657805e-02 5.994815365581635837e-03
3.847695390781562974e+00 5.429326660204458754e-02 9.108673506089553368e-03
3.887775551102204297e+00 1.234704024715040441e-02 1.356582778712174704e-02
3.927855711422845619e+00 -3.202402934848304350e-02 1.981216251173038845e-02
3.967935871743486942e+00 -7.828321758854750456e-02 2.838355838453704774e-02
4.008016032064127820e+00 -1.258767912076184381e-01 3.990092603909207308e-02
4.048096192384769587e+00 -1.742451975475524661e-01 5.505413699288447954e-02
4.088176352705410466e+00 -2.228308903166399679e-01 7.457241629072788869e-02
4.128256513026052232e+00 -2.710863949586618249e-01 9.917922878854974755e-02
4.168336673346693111e+00 -3.184821832349476467e-01 1.295310276639294877e-01
4.208416833667334878e+00 -3.645134022980955901e-01 1.661414710318572796e-01
4.248496993987975756e+00 -4.087051932344810123e-01 2.092951347641480719e-01
4.288577154308616635e+00 -4.506177429838649218e-01 2.589572087093267583e-01
4.328657314629258401e+00 -4.898502862483172793e-01 3.146886390932813193e-01
4.368737474949899280e+00 -5.260432628281728196e-01 3.755779318022250957e-01
4.408817635270541047e+00 -5.588802757381049480e-01 4.402018171977796768e-01
4.448897795591181925e+00 -5.880892910215490543e-01 5.066265973436032688e-01
4.488977955911823692e+00 -6.134422778580223001e-01 5.724585508533441836e-01
4.529058116232464570e+00 -6.347546983342916560e-01 6.349484951828368029e-01
4.569138276553106337e+00 -6.518846965708303687e-01 6.911493328372046996e-01
4.609218436873747216e+00 -6.647314028891005977e-01 7.381169517152895709e-01
4.649298597194388982e+00 -6.732331310800609980e-01 7.731393084431524843e-01
4.689378757515029861e+00 -6.773657328850843928e-01 7.939724742536122815e-01
4.729458917835670739e+00 -6.771407230006104561e-01 7.990569562631196776e-01
4.769539078156312506e+00 -6.726033788327305807e-01 7.876879226782501631e-01
4.809619238476953385e+00 -6.638312963699696256e-01 7.601171225059495384e-01
4.849699398797595151e+00 -6.509330082541696649e-01 7.175686471950060152e-01
4.889779559118236030e+00 -6.340467798465945215e-01 6.621622755651775938e-01
4.929859719438877796e+00 -6.133398047895051164e-01 5.967493417083071794e-01
4.969939879759518675e+00 -5.890074511502949584e-01 5.246762832826386003e-01
5.010020040080160442e+00 -5.612727645798800680e-01 4.495034030084752996e-01
5.050100200400801320e+00 -5.303861287756601595e-01 3.747102783589024710e-01
5.090180360721443087e+00 -4.966247318916037767e-01 3.034211583423719882e-01
5.130260521042083965e+00 -4.602920857524616105e-01 2.381827313610425656e-01
5.170340681362724844e+00 -4.217175203283234364e-01 1.808167665403632163e-01
5.210420841683366611e+00 -3.812551008657066864e-01 1.323587276668156953e-01
5.250501002004007489e+00 -3.392821390762903455e-01 9.308332861429766125e-02
5.290581162324649256e+00 -2.961977254408651450e-01 6.260532226099879693e-02
5.330661322645290134e+00 -2.524202519527626865e-01 4.003328828126698213e-02
5.370741482965931901e+00 -2.083846577253762600e-01 2.415100361621368499e-02
5.410821643286572780e+00 -1.645374092023565715e-01 1.360126523184207112e-02
5.450901803607214546e+00 -1.213351671048598923e-01 7.044174370899940370e-03
5.490981963927855425e+00 -7.923615398070266158e-02 3.280046025086954652e-03
5.531062124248497192e+00 -3.869801906911792683e-02 1.323443372498364938e-03
5.571142284569138070e+00 -1.711409472674070564e-04 4.322415778609402346e-04
5.611222444889778949e+00 3.591005418803795007e-02 9.793456527576153037e-05
5.651302605210420715e+00 6.913115409094686137e-02 8.883098882227756667e-06
5.691382765531061594e+00 9.910550568234195723e-02 5.329011271032915114e-07
5.731462925851703361e+00 1.254812709379384550e-01 4.086794947376721266e-06
5.771543086172344239e+00 1.479468406809281711e-01 2.717642249280086989e-06
5.811623246492986006e+00 1.662373490817088129e-01 8.781046313303953641e-08
5.851703406813626884e+00 1.801407643803363545e-01 2.095408337493377154e-06
5.891783567134268651e+00 1.895024077854545741e-01 9.699171424399757120e-06
5.931863727454909530e+00 1.942284186880326446e-01 1.904948091557668270e-05
5.971943887775551296e+00 1.942885996059366960e-01 2.489330253539830088e-05
6.012024048096192175e+00 1.897181354038312007e-01 2.403496976628926183e-05
6.052104208416833053e+00 1.806177083671747785e-01 1.702251566295419143e-05
6.092184368737474820e+00 1.671525159471210775e-01 7.658778671961206713e-06
6.132264529058115698e+00 1.495500805205292605e-01 9.948305222342310361e-07
6.172344689378757465e+00 1.280966612002781280e-01 9.582247246007198928e-07
6.212424849699398344e+00 1.031325497551057457e-01 8.680721771858123200e-06
6.252505010020040110e+00 7.504634567859083671e-02 2.212200147732943766e-05
6.292585170340680989e+00 4.426820524544511359e-02 3.698812630455536191e-05
6.332665330661322756e+00 1.126252660769651304e-02 4.844091352845962187e-05
6.372745490981963634e+00 -2.348001661080615157e-02 5.287598573630965986e-05
6.412825651302604513e+00 -5.945094755209084231e-02 4.910938374851105668e-05
6.452905811623246279e+00 -9.613225411598588788e-02 3.861084290979208616e-05
6.492985971943887158e+00 -1.330047699486427426e-01 2.480614474104177308e-05
6.533066132264528925e+00 -1.695565155546512881e-01 1.178916535862797121e-05
6.573146292585169803e+00 -2.052902478529177455e-01 2.951987219468851982e-06
6.613226452905811570e+00 -2.397304836054318100e-01 2.145528641534515394e-10
6.653306613226452448e+00 -2.724300911873158704e-01 2.632968000276296214e-06
6.693386773547094215e+00 -3.029758852967196492e-01 8.909279057000935259e-06
6.733466933867735094e+00 -3.309931163559087786e-01 1.608677611934369395e-05
6.773547094188376860e+00 -3.561494493490803270e-01 2.159379842082413640e-05
6.813627254509017739e+00 -3.781579774366038427e-01 2.379817082349882786e-05
6.853707414829658617e+00 -3.967789588585129978e-01 2.235239700473583044e-05
6.893787575150300384e+00 -4.118211197624507269e-01 1.806977760036623782e-05
6.933867735470941263e+00 -4.231421934535212759e-01 1.244745183459753624e-05
6.973947895791583029e+00 -4.306484397037647072e-01 7.055958452128937397e-06
7.014028056112223908e+00 -4.342938417137717777e-01 3.021681327958231365e-06
7.054108216432865675e+00 -4.340788429354843769e-01 7.620927544027341510e-07
7.094188376753506553e+00 -4.300484914694920890e-01 2.148135036041597467e-08
7.134268537074148320e+00 -4.222904036520058746e-01 1.402036049430216810e-07
7.174348697394789198e+00 -4.109325436999122227e-01 4.199500282414463122e-07
7.214428857715430965e+00 -3.961407348931160199e-01 4.341728198307219362e-07
7.254509018036071843e+00 -3.781161758179991672e-01 1.747759282238659968e-07
7.294589178356712722e+00 -3.570928959879487441e-01 1.597761426814260522e-09
7.334669338677354489e+00 -3.333350421209733128e-01 4.378704229436032645e-07
7.374749498997995367e+00 -3.071343430025126331e-01 1.906343161746722688e-06
7.414829659318637134e+00 -2.788074613008711400e-01 4.511618180277878070e-06
7.454909819639278012e+00 -2.486931121614839035e-01 7.947414325512848490e-06
7.494989979959919779e+00 -2.171493758751136538e-01 1.155494557501394549e-05
7.535070140280560658e+00 -1.845508259745466673e-01 1.450519224666563797e-05
7.575150300601202424e+00 -1.512852712173690384e-01 1.603965611806340062e-05
7.615230460921843303e+00 -1.177505214878186990e-01 1.569246697482275439e-05
7.655310621242485070e+00 -8.435103477920705140e-02 1.343418120222829513e-05
7.695390781563125948e+00 -5.149402115463135726e-02 9.711332257374473374e-06
7.735470941883766827e+00 -1.958532785830699452e-02 5.394658116824923159e-06
7.775551102204408593e+00 1.097453983103091960e-02 1.680361813256055418e-06
7.815631262525049472e+00 3.979503253806094404e-02 2.284851557016280478e-09
7.855711422845691239e+00 6.650043566670739426e-02 2.013880909923610648e-06
7.895791583166332117e+00 9.073438143093369435e-02 9.687908632335468247e-06
7.935871743486973884e+00 1.121647898901437929e-01 2.556987603189814773e-05
7.975951903807614762e+00 1.304889155791454924e-01 5.321786133586791403e-05
8.016032064128255641e+00 1.454375703642938056e-01 9.786701521723524435e-05
8.056112224448897408e+00 1.567807504845622479e-01 1.673631188364640423e-04
8.096192384769539174e+00 1.643300245363994716e-01 2.734578696838222528e-04
8.136272545090179165e+00 1.679437470889713624e-01 4.335178483322542332e-04
8.176352705410820931e+00 1.675290847574707476e-01 6.727651560111810522e-04
8.216432865731462698e+00 1.630445127315160725e-01 1.027099872129443384e-03
8.256513026052104465e+00 1.545018625068268758e-01 1.546531297270753664e-03
8.296593186372744455e+00 1.419664090916289145e-01 2.299213356372667091e-03
8.336673346693386222e+00 1.255568046045177633e-01 3.375966539498163367e-03
8.376753507014027988e+00 1.054439602942986998e-01 4.895078439376749149e-03
8.416833667334669755e+00 8.184863152876251102e-02 7.007131554392150019e-03
8.456913827655309746e+00 5.503872210875639798e-02 9.899375154395146162e-03
8.496993987975951512e+00 2.532471250900032375e-02 1.379913653727391637e-02
8.537074148296593279e+00 -6.944721889204622314e-03 1.897556161398046906e-02
8.577154308617233269e+00 -4.138809634661975295e-02 2.573886665829137194e-02
8.617234468937875036e+00 -7.759721254306198301e-02 3.443616809408944074e-02
8.657314629258516803e+00 -1.151437697857678050e-01 4.544293836892834143e-02
8.697394789579158569e+00 -1.535858405195076604e-01 5.914919005888908538e-02
8.737474949899798560e+00 -1.924747750671065016e-01 7.593960753737905023e-02
8.777555110220440326e+00 -2.313620552473442393e-01 9.616726068011546835e-02
8.817635270541082093e+00 -2.698055874262189624e-01 1.201212200272804148e-01
8.857715430861723860e+00 -3.073759793789297423e-01 1.479888951836094146e-01
8.897795591182363850e+00 -3.436624212230585673e-01 1.798150046591101003e-01
8.937875751503005617e+00 -3.782775427825667003e-01 2.154601882442807315e-01
8.977955911823647384e+00 -4.108619062696631796e-01 2.545630063061893322e-01
9.018036072144287374e+00 -4.410879232493190027e-01 2.965100166957554961e-01
9.058116232464929141e+00 -4.686626416725615529e-01 3.404189549676348014e-01
9.098196392785570907e+00 -4.933299074737288459e-01 3.851399170805687167e-01
9.138276553106212674e+00 -5.148719902860841025e-01 4.292787482487656625e-01
9.178356713426852664e+00 -5.331103031246410273e-01 4.712450786729587282e-01
9.218436873747494431e+00 -5.479053859874394306e-01 5.093252244549296703e-01
9.258517034068136198e+00 -5.591566077858911576e-01 5.417779468109349406e-01
9.298597194388777964e+00 -5.668012838179821156e-01 5.669474487974479615e-01
9.338677354709417955e+00 -5.708132242588853655e-01 5.833848776915122603e-01
9.378757515030059722e+00 -5.712012603936487132e-01 5.899685355020602984e-01
9.418837675350701488e+00 -5.680075064058599521e-01 5.860103955023281408e-01
9.458917835671341479e+00 -5.613053688931136653e-01 5.713364561842130263e-01
9.498997995991983245e+00 -5.511977005239847571e-01 5.463310861209478286e-01
9.539078156312625012e+00 -5.378149299565905261e-01 5.119372313490924142e-01
9.579158316633266779e+00 -5.213131869743460323e-01 4.696089995674396778e-01
9.619238476953906769e+00 -5.018726507349685617e-01 4.212187528695058303e-01
9.659318637274548536e+00 -4.796959632244618965e-01 3.689252603989864321e-01
9.699398797595190302e+00 -4.550066786560245657e-01 3.150148786788393718e-01
9.739478957915832069e+00 -4.280479638161033829e-01 2.617319657817440692e-01
9.779559118236472059e+00 -3.990812656479237330e-01 2.111149793651939943e-01
9.819639278557113826e+00 -3.683848792149911899e-01 1.648556522538677238e-01
9.859719438877755593e+00 -3.362527160963758588e-01 1.241967001452051605e-01
9.899799599198395583e+00 -3.029928475407610566e-01 8.987678049906761002e-02
9.939879759519037350e+00 -2.689257350611476971e-01 6.212720573606487356e-02
9.979959919839679117e+00 -2.343825135032815699e-01 4.071858485680103501e-02
1.002004008016032088e+01 -1.997029224136293857e-01 2.504795799172379600e-02
1.006012024048096087e+01 -1.652327315850314615e-01 1.425325671543677120e-02
1.010020040080160264e+01 -1.313210221883263085e-01 7.339149221398736690e-03
1.014028056112224441e+01 -9.831718349299414794e-02 3.297453157631077131e-03
1.018036072144288617e+01 -6.656730950101191757e-02 1.207736929902388217e-03
1.022044088176352616e+01 -3.641030975610216186e-02 3.079646313107204238e-04
1.026052104208416793e+01 -8.174022898299694584e-03 3.034283632759640140e-05
1.030060120240480970e+01 1.782923017335512339e-02 3.421645088005694245e-06
1.034068136272544969e+01 4.130728798843930072e-02 2.656373816684064044e-05
1.038076152304609145e+01 6.199247563026168140e-02 2.646960345640301198e-05
1.042084168336673322e+01 7.964618521477212498e-02 6.942378424180397999e-06
1.046092184368737499e+01 9.406339012970087177e-02 2.356718542271740400e-06
1.050100200400801498e+01 1.050765606465928759e-01 4.275911003751704348e-05
