# time correlation overlap_with_initial
0.000000000000000000e+00 -1.000000000000000000e+00 1.000000000000000000e+00
4.008016032064128098e-02 -9.967708543168793955e-01 9.855841910225029423e-01
8.016032064128256196e-02 -9.871042947361803321e-01 9.435270648695396334e-01
1.202404809619238429e-01 -9.710633147159496437e-01 8.772432574934285743e-01
1.603206412825651239e-01 -9.487543458219921400e-01 7.919309037323679634e-01
2.004008016032063910e-01 -9.203283600192059266e-01 6.939185433767818267e-01
2.404809619238476859e-01 -8.859832171963257785e-01 5.899159163415862439e-01
2.805611222444889807e-01 -8.459655308449912647e-01 4.862823341180000369e-01
3.206412825651302478e-01 -8.005734646501081464e-01 3.884242029840189181e-01
3.607214428857715149e-01 -7.501587160555559519e-01 3.003904736080633131e-01
4.008016032064127820e-01 -6.951286796272304613e-01 2.247006124852405362e-01
4.408817635270541047e-01 -6.359478003053699036e-01 1.623906450741799401e-01
4.809619238476953718e-01 -5.731379891131838100e-01 1.132322452237906896e-01
5.210420841683366389e-01 -5.072784856584602320e-01 7.605792361743897445e-02
5.611222444889779615e-01 -4.390035011468629844e-01 4.912226180223773497e-02
6.012024048096191731e-01 -3.689997931284738630e-01 3.043857835508353982e-02
6.412825651302604957e-01 -2.980007922940444698e-01 1.804947730846124393e-02
6.813627254509018183e-01 -2.267813325938119184e-01 1.021105150786720192e-02
7.214428857715430299e-01 -1.561479804257231985e-01 5.491027939856470315e-03
7.615230460921843525e-01 -8.693076285888119703e-02 2.794421890062813441e-03
8.016032064128255641e-01 -1.997001280699833153e-02 1.338563162422298780e-03
8.416833667334668867e-01 4.389455258137638094e-02 5.994825881811130042e-04
8.817635270541082093e-01 1.038395166491638960e-01 2.489007535064563731e-04
9.218436873747494209e-01 1.590704456375137688e-01 9.476041282790436944e-05
9.619238476953907435e-01 2.088385798126256021e-01 3.260365256657214890e-05
1.002004008016031955e+00 2.524539255596996989e-01 9.936837513673597351e-06
1.042084168336673278e+00 2.893010560386356511e-01 2.606357554623896644e-06
1.082164328657314600e+00 3.188509766365462128e-01 5.627611164424983924e-07
1.122244488977955923e+00 3.406740647904190067e-01 9.275449354481548233e-08
1.162324649298597246e+00 3.544490399629621757e-01 1.004306317950824935e-08
1.202404809619238346e+00 3.599713517426594844e-01 4.709565972490445547e-10
1.242484969939879669e+00 3.571578327467755942e-01 8.759568584915762202e-14
1.282565130260520991e+00 3.460494574968986381e-01 3.526150396092124241e-12
1.322645290581162314e+00 3.268107524145758003e-01 4.371472290267147663e-14
1.362725450901803637e+00 2.997266894449302499e-01 1.176741942490383699e-15
1.402805611222444737e+00 2.651966173358885626e-01 1.261967479618337455e-12
1.442885771543086060e+00 2.237259096323498675e-01 3.605846400426115520e-12
1.482965931863727382e+00 1.759149771619933356e-01 1.617229566288175515e-12
1.523046092184368705e+00 1.224470007960845597e-01 6.190979748231517736e-13
1.563126252505010028e+00 6.407329400639175110e-02 1.150495731820161939e-11
1.603206412825651128e+00 1.598915148567168348e-03 2.917437416669532334e-11
1.643286573146292451e+00 -6.413388269508812911e-02 3.425293277471585248e-11
1.683366733466933773e+00 -1.322602204492092093e-01 1.885456869415667555e-11
1.723446893787575096e+00 -2.019091683133278359e-01 1.283621124148802049e-12
1.763527054108216419e+00 -2.722167419528522259e-01 9.646273603187226572e-12
1.803607214428857741e+00 -3.423407870407669806e-01 5.234587436430319707e-11
1.843687374749498842e+00 -4.114711067245739318e-01 1.069459587348006642e-10
1.883767535070140164e+00 -4.788413714507627761e-01 1.380065076602360003e-10
1.923847695390781487e+00 -5.437357001240032961e-01 1.258322796922376993e-10
1.963927855711422810e+00 -6.054968960167335101e-01 8.044783629917793649e-11
2.004008016032063910e+00 -6.635294522154673302e-01 3.111693468274528006e-11
2.044088176352705233e+00 -7.173040294867840672e-01 3.303218683863520343e-12
2.084168336673346555e+00 -7.663574124074521432e-01 2.778350825029374042e-12
2.124248496993987878e+00 -8.102936808265607249e-01 1.700635624996740684e-11
2.164328657314629201e+00 -8.487820180991628716e-01 2.874069118158219426e-11
2.204408817635270523e+00 -8.815554091271027293e-01 2.889287063236465901e-11
2.244488977955911846e+00 -9.084073484924785058e-01 1.969904965229659221e-11
2.284569138276553169e+00 -9.291891012590087762e-01 8.911113813871301638e-12
2.324649298597194491e+00 -9.438062654888305092e-01 2.209965109202877192e-12
2.364729458917835370e+00 -9.522156645069338454e-01 1.167028164392112922e-13
2.404809619238476692e+00 -9.544224607442658437e-01 1.067672467949125912e-13
2.444889779559118015e+00 -9.504775624178070093e-01 1.549843990723208330e-13
2.484969939879759337e+00 -9.404756835697797301e-01 1.878336032308746031e-14
2.525050100200400660e+00 -9.245538103168344790e-01 1.387603529598694370e-14
2.565130260521041983e+00 -9.028902655376401798e-01 3.770057521415461033e-15
2.605210420841683305e+00 -8.757043891372903177e-01 1.028264074264755820e-12
2.645290581162324628e+00 -8.432563392651568623e-01 8.933538749950943509e-12
2.685370741482965951e+00 -8.058477618373444118e-01 3.650887322472468129e-11
2.725450901803607273e+00 -7.638217931897999247e-01 1.006784705679306317e-10
2.765531062124248596e+00 -7.175641783492890946e-01 2.144547501289762068e-10
2.805611222444889474e+00 -6.675027734281104852e-01 3.773185630282282361e-10
2.845691382765530797e+00 -6.141083611086660676e-01 5.694019687430123145e-10
2.885771543086172120e+00 -5.578929136313564019e-01 7.531752336528146213e-10
2.925851703406813442e+00 -4.994092770294135675e-01 8.820988250597648557e-10
2.965931863727454765e+00 -4.392475612235274274e-01 9.123406623571206577e-10
3.006012024048096087e+00 -3.780329634896275603e-01 8.134885116200686235e-10
3.046092184368737410e+00 -3.164206673427523708e-01 5.794972148763611236e-10
3.086172344689378733e+00 -2.550884683510561413e-01 2.531173229646772034e-10
3.126252505010020055e+00 -1.947316714491264811e-01 6.161865679431227346e-12
3.166332665330661378e+00 -1.360552644718710236e-01 3.765889944274810626e-10
3.206412825651302256e+00 -7.976273663549390824e-02 2.912644203284195386e-09
3.246492985971943579e+00 -2.654678633065834722e-02 1.180849276938238990e-08
3.286573146292584902e+00 2.292127750488075211e-02 3.783767629057729327e-08
3.326653306613226224e+00 6.800255552961541328e-02 1.073577482404020455e-07
3.366733466933867547e+00 1.081028589524512529e-01 2.819888656551606730e-07
3.406813627254508869e+00 1.426839816201364575e-01 6.997452512480350506e-07
3.446893787575150192e+00 1.712736675140369702e-01 1.657349302240087793e-06
3.486973947895791515e+00 1.934753149044368126e-01 3.768321286007137010e-06
3.527054108216432837e+00 2.089774619183315529e-01 8.254974584615265966e-06
3.567134268537074160e+00 2.175607972402153756e-01 1.746752393988133584e-05
3.607214428857715482e+00 2.191031640756584131e-01 3.577277634123680964e-05
3.647294589178356361e+00 2.135835065561263735e-01 7.102129731318352279e-05
3.687374749498997684e+00 2.010828040807274286e-01 1.368805360858781398e-04
3.727454909819639006e+00 1.817835415749577410e-01 2.564106699377082747e-04
3.767535070140280329e+00 1.559665111594180920e-01 4.673364052666757946e-04
3.807615230460921651e+00 1.240057025118369294e-01 8.295133677115709746e-04
3.847695390781562974e+00 8.636130599664307295e-02 1.435056527775647713e-03
3.887775551102204297e+00 4.357057693156050210e-02 2.421434181265078554e-03
3.927855711422845619e+00 -3.762135773489313616e-03 3.987506838338878389e-03
3.967935871743486942e+00 -5.497743305309876066e-02 6.411876454807725716e-03
4.008016032064127820e+00 -1.093726457549802494e-01 1.007214020767683432e-02
4.048096192384769587e+00 -1.662152890005066941e-01 1.546244848093454582e-02
4.088176352705410466e+00 -2.247553449290038974e-01 2.320570816494942415e-02
4.128256513026052232e+00 -2.842385052920026189e-01 3.405534578462503237e-02
4.168336673346693111e+00 -3.439177263434448628e-01 4.888099678138058124e-02
4.208416833667334878e+00 -4.030647869343695899e-01 6.863197049713282150e-02
4.248496993987975756e+00 -4.609801171276354803e-01 9.427369170967671297e-02
4.288577154308616635e+00 -5.170016281645329892e-01 1.266943244601144158e-01
4.328657314629258401e+00 -5.705121371677082109e-01 1.665831549166568726e-01
4.368737474949899280e+00 -6.209449825375565890e-01 2.142874618673843157e-01
4.408817635270541047e+00 -6.677887790547487601e-01 2.696612641862823900e-01
4.448897795591181925e+00 -7.105898762631479570e-01 3.319252713741792093e-01
4.488977955911823692e+00 -7.489545915706444790e-01 3.995626865210583079e-01
4.529058116232464570e+00 -7.825490211427524878e-01 4.702763812728340542e-01
4.569138276553106337e+00 -8.110992261353069388e-01 5.410319255107243208e-01
4.609218436873747216e+00 -8.343892038256782717e-01 6.082006177002666769e-01
4.649298597194388982e+00 -8.522596943042127782e-01 6.678074256825818900e-01
4.689378757515029861e+00 -8.646052318564402261e-01 7.158670837620736416e-01
4.729458917835670739e+00 -8.713722794760300205e-01 7.487799501791903012e-01
4.769539078156312506e+00 -8.725562108131582617e-01 7.637363634854948957e-01
4.809619238476953385e+00 -8.681993808168408933e-01 7.590762427220847375e-01
4.849699398797595151e+00 -8.583886701881690007e-01 7.345426452093689607e-01
4.889779559118236030e+00 -8.432538982919661752e-01 6.913845009592277657e-01
4.929859719438877796e+00 -8.229662472134245954e-01 6.322795606015588765e-01
4.969939879759518675e+00 -7.977371672249259360e-01 5.610782828633915642e-01
5.010020040080160442e+00 -7.678176464091748255e-01 4.823999657228336124e-01
5.050100200400801320e+00 -7.334975028142017850e-01 4.011354283637348361e-01
5.090180360721443087e+00 -6.951051371283701874e-01 3.219325990299898299e-01
5.130260521042083965e+00 -6.530068972794247362e-01 2.487382333155500336e-01
5.170340681362724844e+00 -6.076067030142221492e-01 1.844644584949577670e-01
5.210420841683366611e+00 -5.593450330134318582e-01 1.308191713270034362e-01
5.250501002004007489e+00 -5.086977026734202934e-01 8.831317892557909166e-02
5.290581162324649256e+00 -4.561739630349621044e-01 5.642222678260497976e-02
5.330661322645290134e+00 -4.023137701185302562e-01 3.385879543164368316e-02
5.370741482965931901e+00 -3.476845386514123559e-01 1.889378117408716667e-02
5.410821643286572780e+00 -2.928764287950057499e-01 9.668060343252753500e-03
5.450901803607214546e+00 -2.384974722107914280e-01 4.445650607592611415e-03
5.490981963927855425e+00 -1.851667027022209644e-01 1.780152184835206508e-03
5.531062124248497192e+00 -1.335076382270109496e-01 5.883247114195348142e-04
5.571142284569138070e+00 -8.413945638907022184e-02 1.443073806850500107e-04
5.611222444889778949e+00 -3.766913123408750785e-02 1.988836157244716391e-05
5.651302605210420715e+00 5.318755124423563130e-03 2.930551689147143737e-07
5.691382765531061594e+00 4.427061158687649323e-02 7.357036031642185628e-07
5.731462925851703361e+00 7.867446063116666222e-02 3.857668384903080496e-07
5.771543086172344239e+00 1.080684159451589244e-01 1.757711748755326830e-07
5.811623246492986006e+00 1.320505900975959823e-01 2.518739443633652382e-06
5.851703406813626884e+00 1.502864594050095648e-01 6.120019018939792389e-06
5.891783567134268651e+00 1.625168601772666865e-01 8.004787441209144791e-06
5.931863727454909530e+00 1.685632639662150711e-01 6.661209778020694244e-06
5.971943887775551296e+00 1.683328165386734077e-01 3.225103698280089988e-06
6.012024048096192175e+00 1.618207183044973185e-01 4.124894601260952634e-07
6.052104208416833053e+00 1.491115995372700731e-01 4.870066114928142570e-07
6.092184368737474820e+00 1.303785084154845952e-01 3.788573066133565609e-06
6.132264529058115698e+00 1.058803969659524030e-01 8.633242320459816896e-06
6.172344689378757465e+00 7.595761514998757014e-02 1.242860194223682570e-05
6.212424849699398344e+00 4.102582093669846636e-02 1.319582944415259766e-05
6.252505010020040110e+00 1.568313786942533488e-03 1.060798487757556143e-05
6.292585170340680989e+00 -4.187284496483548862e-02 6.058788330770935649e-06
6.332665330661322756e+00 -8.870690709820271136e-02 1.850742406791645893e-06
6.372745490981963634e+00 -1.383049921653846381e-01 2.289612024386847222e-08
6.412825651302604513e+00 -1.900115113170355030e-01 1.432520233709688319e-06
6.452905811623246279e+00 -2.431551362632564939e-01 5.488329661394079914e-06
6.492985971943887158e+00 -2.970603780022947893e-01 1.056082114847767896e-05
6.533066132264528925e+00 -3.510577621064130405e-01 1.477901990199235538e-05
6.573146292585169803e+00 -4.044944253202424345e-01 1.680033937174542255e-05
6.613226452905811570e+00 -4.567425226007549299e-01 1.622861607669493655e-05
6.653306613226452448e+00 -5.072079326526126586e-01 1.357440771362400528e-05
6.693386773547094215e+00 -5.553362844770015627e-01 9.873920912449842333e-06
6.733466933867735094e+00 -6.006192110802724970e-01 6.199649972228389214e-06
6.773547094188376860e+00 -6.425978016651570091e-01 3.290403176879852466e-06
6.813627254509017739e+00 -6.808662412653168072e-01 1.413735658199860684e-06
6.853707414829658617e+00 -7.150728912496786549e-01 4.486471659299443671e-07
6.893787575150300384e+00 -7.449215286514425660e-01 8.256665305000784517e-08
6.933867735470941263e+00 -7.701705650801173864e-01 3.075012448227923600e-09
6.973947895791583029e+00 -7.906323915398095759e-01 6.186494729082358899e-09
7.014028056112223908e+00 -8.061714191394373508e-01 8.935343271251148074e-09
7.054108216432865675e+00 -8.167022038574401899e-01 2.995715817584747240e-09
7.094188376753506553e+00 -8.221870126510317789e-01 2.644047202495184084e-11
7.134268537074148320e+00 -8.226334377943925746e-01 2.265517508069747697e-09
7.174348697394789198e+00 -8.180920680982809445e-01 2.949834448596831720e-09
7.214428857715430965e+00 -8.086542106267089469e-01 2.168641317159895484e-10
7.254509018036071843e+00 -7.944500290374794105e-01 4.922912479533335507e-09
7.294589178356712722e+00 -7.756467771625715768e-01 3.388444002072981667e-08
7.334669338677354489e+00 -7.524475164297280694e-01 9.438568072987913161e-08
7.374749498997995367e+00 -7.250899879793996083e-01 1.730260743062576867e-07
7.414829659318637134e+00 -6.938457664757508025e-01 2.385815599203274496e-07
7.454909819639278012e+00 -6.590196212438462764e-01 2.582998893299735409e-07
7.494989979959919779e+00 -6.209487474929872297e-01 2.178667430979154690e-07
7.535070140280560658e+00 -5.800022419326386069e-01 1.327299725297120406e-07
7.575150300601202424e+00 -5.365799144648503161e-01 4.392083995289132491e-08
7.615230460921843303e+00 -4.911113679081423045e-01 6.702858439033406606e-10
7.655310621242485070e+00 -4.440538615223882934e-01 3.936485830921634210e-08
7.695390781563125948e+00 -3.958904611140625640e-01 1.698031561751309029e-07
7.735470941883766827e+00 -3.471265120005349591e-01 3.750396996627202408e-07
7.775551102204408593e+00 -2.982864207975532977e-01 6.237649521270449748e-07
7.815631262525049472e+00 -2.499084922849789114e-01 8.886644101094831651e-07
7.855711422845691239e+00 -2.025401051510131167e-01 1.163147419875871339e-06
7.895791583166332117e+00 -1.567309476841834692e-01 1.472954733173975413e-06
7.935871743486973884e+00 -1.130266268257788392e-01 1.885665523761875625e-06
7.975951903807614762e+00 -7.196065709765131491e-02 2.527565508613530082e-06
8.016032064128255641e+00 -3.404685157445553473e-02 3.621665015113813938e-06
8.056112224448897408e+00 2.292820156634465915e-04 5.562949297604385243e-06
8.096192384769539174e+00 3.041871898564157614e-02 9.049548459299221220e-06
8.136272545090179165e+00 5.611726050123941323e-02 1.529384531406806233e-05
8.176352705410820931e+00 7.697338348410096009e-02 2.634864102458067176e-05
8.216432865731462698e+00 9.269539680217388222e-02 4.560135768614827077e-05
8.256513026052104465e+00 1.030579585417321503e-01 7.851473067399090359e-05
8.296593186372744455e+00 1.079071708506712940e-01 1.337233212989437023e-04
8.336673346693386222e+00 1.071648322139848453e-01 2.246309708778451285e-04
8.376753507014027988e+00 1.008307823683805837e-01 3.716873513939769526e-04
8.416833667334669755e+00 8.898419127754045310e-02 6.055498990208492329e-04
8.456913827655309746e+00 7.178277366002155935e-02 9.713446556681116714e-04
8.496993987975951512e+00 4.946077807665704568e-02 1.534216350782125707e-03
8.537074148296593279e+00 2.232507265357980969e-02 2.386289478370856153e-03
8.577154308617233269e+00 -9.250070722535032666e-03 3.655013228266790811e-03
8.617234468937875036e+00 -4.482962610517136903e-02 5.512663760435731856e-03
8.657314629258516803e+00 -8.392571092854159143e-02 8.186420536230511191e-03
8.697394789579158569e+00 -1.260062436574287126e-01 1.196809674170508722e-02
8.737474949899798560e+00 -1.705046488753453882e-01 1.722201206390470626e-02
8.777555110220440326e+00 -2.168295758395157036e-01 2.438915224337986562e-02
8.817635270541082093e+00 -2.643753241915968721e-01 3.398506233928646342e-02
8.857715430861723860e+00 -3.125316057562905758e-01 4.658892389637430548e-02
8.897795591182363850e+00 -3.606935625091642894e-01 6.282084040173488426e-02
8.937875751503005617e+00 -4.082706376724318242e-01 8.330526086047849998e-02
8.977955911823647384e+00 -4.546951897463867853e-01 1.086188879349098829e-01
9.018036072144287374e+00 -4.994297517775880824e-01 1.392236905050580620e-01
9.058116232464929141e+00 -5.419735254046401662e-01 1.753872890529802886e-01
9.098196392785570907e+00 -5.818675915809261578e-01 2.170964378216265478e-01
9.138276553106212674e+00 -6.186989554105191136e-01 2.639717203751186791e-01
9.178356713426852664e+00 -6.521035745420361573e-01 3.151949209157518528e-01
9.218436873747494431e+00 -6.817680177616268766e-01 3.694617684146661585e-01
9.258517034068136198e+00 -7.074304772174521139e-01 4.249738404610101661e-01
9.298597194388777964e+00 -7.288804249579643457e-01 4.794807007613553496e-01
9.338677354709417955e+00 -7.459580148403688327e-01 5.303805341521643513e-01
9.378757515030059722e+00 -7.585523326316228054e-01 5.748791619984136014e-01
9.418837675350701488e+00 -7.665997326386464472e-01 6.102014444735597287e-01
9.458917835671341479e+00 -7.700813564547378531e-01 6.338367993530402700e-01
9.498997995991983245e+00 -7.690209731520297742e-01 6.437958408160187052e-01
9.539078156312625012e+00 -7.634823895670745930e-01 6.388449201483796802e-01
9.579158316633266779e+00 -7.535672780941674587e-01 6.186874645191651201e-01
9.619238476953906769e+00 -7.394129397468875986e-01 5.840600896240619733e-01
9.659318637274548536e+00 -7.211904352352186409e-01 5.367230613446209997e-01
9.699398797595190302e+00 -6.991029290721710865e-01 4.793360062755130380e-01
9.739478957915832069e+00 -6.733842256694062556e-01 4.152264656195817083e-01
9.779559118236472059e+00 -6.442976651492443585e-01 3.480769760976589744e-01
9.819639278557113826e+00 -6.121349507528951461e-01 2.815675375116669099e-01
9.859719438877755593e+00 -5.772153323125018831e-01 2.190233257249225851e-01
9.899799599198395583e+00 -5.398844373971118937e-01 1.631132727785221115e-01
9.939879759519037350e+00 -5.005133081391384131e-01 1.156433884863848766e-01
9.979959919839679117e+00 -4.594968507130545721e-01 7.746856101732586819e-02
1.002004008016032088e+01 -4.172522191895516874e-01 4.853147017120372497e-02
1.006012024048096087e+01 -3.742164898581135102e-01 2.801273615838929809e-02
1.010020040080160264e+01 -3.308439364242803382e-01 1.456093107792783524e-02
1.014028056112224441e+01 -2.876026154437111848e-01 6.558110480923316603e-03
1.018036072144288617e+01 -2.449702425009382956e-01 2.374755760389141070e-03
1.022044088176352616e+01 -2.034295462357477435e-01 5.742047536452122430e-04
1.026052104208416793e+01 -1.634626970368678045e-01 4.081720459873378743e-05
1.030060120240480970e+01 -1.255455233543857074e-01 2.404702194347289933e-05
1.034068136272544969e+01 -9.014072975057063619e-02 1.084360320190008031e-04
1.038076152304609145e+01 -5.769132490180436251e-02 1.329880004014507720e-04
1.042084168336673322e+01 -2.861314649561793461e-02 8.983152211955226535e-05
1.046092184368737499e+01 -3.288077766658331364e-03 3.063106552286709892e-05
1.050100200400801498e+01 1.794337960602413948e-02 9.418603658033781845e-07
