# time correlation overlap_with_initial
0.000000000000000000e+00 -1.000000000000000000e+00 1.000000000000000000e+00
4.008016032064128098e-02 -9.967808519994766359e-01 9.855932649134562240e-01
8.016032064128256196e-02 -9.871441484083619544e-01 9.435618766295473803e-01
1.202404809619238429e-01 -9.711524694664022128e-01 8.773163069890744792e-01
1.603206412825651239e-01 -9.489115542758213007e-01 7.920486551384081642e-01
2.004008016032063910e-01 -9.205713950062909268e-01 6.940806724964220242e-01
2.404809619238476859e-01 -8.863285850285278489e-01 5.901157907855686391e-01
2.805611222444889807e-01 -8.464281650886062991e-01 4.865084804442668109e-01
3.206412825651302478e-01 -8.011664356234300399e-01 3.886624771648991561e-01
3.607214428857715149e-01 -7.508929101650614335e-01 3.006263577181905733e-01
4.008016032064127820e-01 -6.960125186411119103e-01 2.249213019300866923e-01
4.408817635270541047e-01 -6.369869253603822612e-01 1.625864912913843330e-01
4.809619238476953718e-01 -5.743350147680520434e-01 1.133974807225569675e-01
5.210420841683366389e-01 -5.086327211894914324e-01 7.619062399095913318e-02
5.611222444889779615e-01 -4.405107746886508524e-01 4.922374534843528687e-02
6.012024048096191731e-01 -3.706522536938347545e-01 3.051245954371761479e-02
6.412825651302604957e-01 -2.997868443408878703e-01 1.810062776021999567e-02
6.813627254509018183e-01 -2.286855667705204320e-01 1.024467398856336933e-02
7.214428857715430299e-01 -1.581512566351614135e-01 5.511960805394389845e-03
7.615230460921843525e-01 -8.901031329381897672e-02 2.806726592522193909e-03
8.016032064128255641e-01 -2.209970066398647681e-02 1.345363455898111607e-03
8.416833667334668867e-01 4.174392889865945200e-02 6.029970614914769225e-04
8.817635270541082093e-01 1.016997811919071321e-01 2.505873314156367195e-04
9.218436873747494209e-01 1.569755348692712660e-01 9.550508095116009666e-05
9.619238476953907435e-01 2.068239336792858651e-01 3.290243267700012210e-05
1.002004008016031955e+00 2.505557977034867934e-01 1.004392942814235417e-05
1.042084168336673278e+00 2.875557818438017055e-01 2.639814339526892757e-06
1.082164328657314600e+00 3.172941622066935419e-01 5.715369087382691539e-07
1.122244488977955923e+00 3.393397981695889243e-01 9.456927121367062050e-08
1.162324649298597246e+00 3.533690454057990538e-01 1.030569353001864053e-08
1.202404809619238346e+00 3.591742236423164925e-01 4.905065357897552048e-10
1.242484969939879669e+00 3.566682595854379634e-01 1.717164236543521625e-13
1.282565130260520991e+00 3.458875583371093243e-01 3.634092567081719670e-12
1.322645290581162314e+00 3.269914769323218895e-01 5.061526681518611197e-14
1.362725450901803637e+00 3.002593269375422036e-01 2.564178060683984748e-15
1.402805611222444737e+00 2.660844547443357855e-01 1.216352856765492854e-12
1.442885771543086060e+00 2.249659724348635759e-01 3.584754557512233239e-12
1.482965931863727382e+00 1.774979868642226066e-01 1.687830763554044715e-12
1.523046092184368705e+00 1.243573791733569578e-01 5.680993671348013257e-13
1.563126252505010028e+00 6.628942079423882916e-02 1.110466360916525461e-11
1.603206412825651128e+00 4.093392801533795450e-03 2.859057643905913074e-11
1.643286573146292451e+00 -6.139371042999428041e-02 3.393729309911864477e-11
1.683366733466933773e+00 -1.293117783321776348e-01 1.901387503879079164e-11
1.723446893787575096e+00 -1.987939418545206782e-01 1.541749253732384670e-12
1.763527054108216419e+00 -2.689796212881101489e-01 9.280840548265983643e-12
1.803607214428857741e+00 -3.390292609001488988e-01 5.086937900499427552e-11
1.843687374749498842e+00 -4.081345128911252340e-01 1.045068590555832663e-10
1.883767535070140164e+00 -4.755300868217726129e-01 1.352995665057592507e-10
1.923847695390781487e+00 -5.405003708293470988e-01 1.236480461708511607e-10
1.963927855711422810e+00 -6.023877063121169106e-01 7.922979566528903516e-11
2.004008016032063910e+00 -6.605953971604421326e-01 3.081514998830063047e-11
2.044088176352705233e+00 -7.145923221411811799e-01 3.538529710512023368e-12
2.084168336673346555e+00 -7.639128446967686781e-01 3.132042194020774731e-12
2.124248496993987878e+00 -8.081581987740902306e-01 1.722686228984842238e-11
2.164328657314629201e+00 -8.469941967345713252e-01 2.878263853700168325e-11
2.204408817635270523e+00 -8.801501939354251514e-01 2.883344668529034552e-11
2.244488977955911846e+00 -9.074156562755850697e-01 1.963103653187435631e-11
2.284569138276553169e+00 -9.286376924865666904e-01 8.880306747333417188e-12
2.324649298597194491e+00 -9.437174793385688654e-01 2.213307142097495240e-12
2.364729458917835370e+00 -9.526073646211125068e-01 1.303890311967952411e-13
2.404809619238476692e+00 -9.553078927270060028e-01 1.146737500282252654e-13
2.444889779559118015e+00 -9.518653353395348793e-01 1.569990898727713896e-13
2.484969939879759337e+00 -9.423697173281048167e-01 2.057244430130469969e-14
2.525050100200400660e+00 -9.269533263746225771e-01 1.541724920925016597e-14
2.565130260521041983e+00 -9.057897943486116210e-01 1.457316206382830091e-14
2.605210420841683305e+00 -8.790937570311171401e-01 1.133264777656889476e-12
2.645290581162324628e+00 -8.471207151966020366e-01 9.408970364276245411e-12
2.685370741482965951e+00 -8.101676449258803370e-01 3.794616800309164582e-11
2.725450901803607273e+00 -7.685730903367568034e-01 1.040402541173295871e-10
2.765531062124248596e+00 -7.227182156776787991e-01 2.209875990231831529e-10
2.805611222444889474e+00 -6.730264089501489799e-01 3.882992137696819156e-10
2.845691382765530797e+00 -6.199640598094484645e-01 5.857778526068239816e-10
2.885771543086172120e+00 -5.640389095578637324e-01 7.752299024751765682e-10
2.925851703406813442e+00 -5.057997626879499053e-01 9.092821301761280150e-10
2.965931863727454765e+00 -4.458329188225517714e-01 9.433158405002650650e-10
3.006012024048096087e+00 -3.847601158568840773e-01 8.462762654269845381e-10
3.046092184368737410e+00 -3.232334141161701813e-01 6.112933961924751434e-10
3.086172344689378733e+00 -2.619280027552977619e-01 2.787956635965314253e-10
3.126252505010020055e+00 -2.015371301628051670e-01 1.317730993286469804e-11
3.166332665330661378e+00 -1.427644021335058022e-01 3.307347334410484795e-10
3.206412825651302256e+00 -8.631243919949266319e-02 2.721493448969152778e-09
3.246492985971943579e+00 -3.287413363519998966e-02 1.123226592431568348e-08
3.286573146292584902e+00 1.687830642778839763e-02 3.628232118882763879e-08
3.326653306613226224e+00 6.230401237277249232e-02 1.034140638783697044e-07
3.366733466933867547e+00 1.028061372482067665e-01 2.724564536139870157e-07
3.406813627254508869e+00 1.378425768893778436e-01 6.776397124201936023e-07
3.446893787575150192e+00 1.669363122353893225e-01 1.608014554901745095e-06
3.486973947895791515e+00 1.896850021732050251e-01 3.662125593817129758e-06
3.527054108216432837e+00 2.057706082504138223e-01 8.034134654577045859e-06
3.567134268537074160e+00 2.149663256757332608e-01 1.702316086373250725e-05
3.607214428857715482e+00 2.171418773290321180e-01 3.490655370661658246e-05
3.647294589178356361e+00 2.122674370472558691e-01 6.938350142780430358e-05
3.687374749498997684e+00 2.004148139312874055e-01 1.338741238569859189e-04
3.727454909819639006e+00 1.817570229097111023e-01 2.510482077579318698e-04
3.767535070140280329e+00 1.565652984783870716e-01 4.580358448051829773e-04
3.807615230460921651e+00 1.252041575197632151e-01 8.138195680594825050e-04
3.847695390781562974e+00 8.812459163174933552e-02 1.409280891819394759e-03
3.887775551102204297e+00 4.585511394942560354e-02 2.380216432756872107e-03
3.927855711422845619e+00 -1.008023908394527820e-03 3.923323040902761474e-03
3.967935871743486942e+00 -5.181275281636400082e-02 6.314545974517315335e-03
4.008016032064127820e+00 -1.058627511891895578e-01 9.928426491641132931e-03
4.048096192384769587e+00 -1.624309049921059400e-01 1.525588492225929925e-02
4.088176352705410466e+00 -2.207713185734618278e-01 2.291684396610281851e-02
4.128256513026052232e+00 -2.801327459080870663e-01 3.366260319137733686e-02
4.168336673346693111e+00 -3.397697909013054351e-01 4.836240290340212272e-02
4.208416833667334878e+00 -3.989548590922042948e-01 6.796788730525506195e-02
4.248496993987975756e+00 -4.569875654831722644e-01 9.345072377636821914e-02
4.288577154308616635e+00 -5.132040962550931118e-01 1.257102247145966689e-01
4.328657314629258401e+00 -5.669842278562073901e-01 1.654525522650724945e-01
4.368737474949899280e+00 -6.177575067522664831e-01 2.130477168325263237e-01
4.408817635270541047e+00 -6.650076747299622504e-01 2.683777054937535045e-01
4.448897795591181925e+00 -7.082756557314940915e-01 3.306946695687700277e-01
4.488977955911823692e+00 -7.471615483212846742e-01 3.985138030112204688e-01
4.529058116232464570e+00 -7.813248866195731113e-01 4.695665668465233700e-01
4.569138276553106337e+00 -8.104846745055341861e-01 5.408388969192668982e-01
4.609218436873747216e+00 -8.344176993417830035e-01 6.087094647314772455e-01
4.649298597194388982e+00 -8.529572659815728430e-01 6.691932384375486320e-01
4.689378757515029861e+00 -8.659904715344864945e-01 7.182750240462547620e-01
4.729458917835670739e+00 -8.734563304053865052e-01 7.523048520331484523e-01
4.769539078156312506e+00 -8.753428674953632749e-01 7.684050155482732292e-01
4.809619238476953385e+00 -8.716852212001204858e-01 7.648352442367689630e-01
4.849699398797595151e+00 -8.625632123016485631e-01 7.412545168320915367e-01
4.889779559118236030e+00 -8.480998055416150150e-01 6.988336744949681378e-01
4.929859719438877796e+00 -8.284595124445087722e-01 6.401883708244661131e-01
4.969939879759518675e+00 -8.038473325465315122e-01 5.691314802368407921e-01
5.010020040080160442e+00 -7.745080093413549971e-01 4.902747922139685799e-01
5.050100200400801320e+00 -7.407253123700906494e-01 4.085328321898734627e-01
5.090180360721443087e+00 -7.028218444540631493e-01 3.286055490253340094e-01
5.130260521042083965e+00 -6.611583147833663965e-01 2.545122919535053319e-01
5.170340681362724844e+00 -6.161333431774174141e-01 1.892487434997058016e-01
5.210420841683366611e+00 -5.681822513912148098e-01 1.346055568406121228e-01
5.250501002004007489e+00 -5.177761650422982864e-01 9.116575378877614377e-02
5.290581162324649256e+00 -4.654198377225127192e-01 5.845864865357981027e-02
5.330661322645290134e+00 -4.116493514823848510e-01 3.522803433143456564e-02
5.370741482965931901e+00 -3.570285663438009238e-01 1.975371459130503479e-02
5.410821643286572780e+00 -3.021448942222880185e-01 1.016669896090380623e-02
5.450901803607214546e+00 -2.476041259020443364e-01 4.708124876200266151e-03
5.490981963927855425e+00 -1.940240585390975714e-01 1.902317852575578436e-03
5.531062124248497192e+00 -1.420277064046662208e-01 6.364145119241945182e-04
5.571142284569138070e+00 -9.223493161968060461e-02 1.589874337243411654e-04
5.611222444889778949e+00 -4.525435424615938118e-02 2.268903765092350556e-05
5.651302605210420715e+00 -1.673525941581775582e-03 4.226286907173578999e-07
5.691382765531061594e+00 3.794984214393600647e-02 8.475090655986826686e-07
5.731462925851703361e+00 7.309827725857921676e-02 5.640824808710463337e-07
5.771543086172344239e+00 1.033031418788677713e-01 9.225490326664049926e-08
5.811623246492986006e+00 1.281544823690578261e-01 2.177736468473158603e-06
5.851703406813626884e+00 1.473084689673022085e-01 5.802586792306985582e-06
5.891783567134268651e+00 1.604955035671220553e-01 7.964683714688798041e-06
5.931863727454909530e+00 1.675255459104560141e-01 6.921118879715659072e-06
5.971943887775551296e+00 1.682934109411492740e-01 3.584552196335857641e-06
6.012024048096192175e+00 1.627812054804501918e-01 6.059544009407132785e-07
6.052104208416833053e+00 1.510600550753790072e-01 3.592931303649953991e-07
6.092184368737474820e+00 1.332891911233126947e-01 3.380628883527022347e-06
6.132264529058115698e+00 1.097138017209115385e-01 8.144715919171187016e-06
6.172344689378757465e+00 8.066070959563517717e-02 1.209681338430540896e-05
6.212424849699398344e+00 4.653256785773669801e-02 1.316783311632698670e-05
6.252505010020040110e+00 7.800485875057664581e-03 1.087163711563727400e-05
6.292585170340680989e+00 -3.500470349660184111e-02 6.459055745162218244e-06
6.332665330661322756e+00 -8.130214513901964923e-02 2.172039089686776792e-06
6.372745490981963634e+00 -1.304715171525053508e-01 8.919634419989336052e-08
6.412825651302604513e+00 -1.818640604177402254e-01 1.177992831927048048e-06
6.452905811623246279e+00 -2.348136768358628224e-01 4.971534957551184063e-06
6.492985971943887158e+00 -2.886481563083046487e-01 9.925827538340105386e-06
6.533066132264528925e+00 -3.426995755904818086e-01 1.418938167463658873e-05
6.573146292585169803e+00 -3.963146397776121654e-01 1.637794168062534572e-05
6.613226452905811570e+00 -4.488633627101206169e-01 1.602112086781150521e-05
6.653306613226452448e+00 -4.997476519357305635e-01 1.355763142734161874e-05
6.693386773547094215e+00 -5.484076102432511313e-01 9.979406368223249857e-06
6.733466933867735094e+00 -5.943278203544172245e-01 6.350266358737981839e-06
6.773547094188376860e+00 -6.370410293627338794e-01 3.427691931057338493e-06
6.813627254509017739e+00 -6.761319655635441572e-01 1.509271007664944013e-06
6.853707414829658617e+00 -7.112385750751475388e-01 5.003441589598598411e-07
6.893787575150300384e+00 -7.420535584904598414e-01 1.029591632255731437e-07
6.933867735470941263e+00 -7.683236529967898409e-01 7.406583189694359474e-09
6.973947895791583029e+00 -7.898493518907694355e-01 5.297043400642972442e-09
7.014028056112223908e+00 -8.064829188036437557e-01 7.767751921172873095e-09
7.054108216432865675e+00 -8.181269102769191948e-01 2.585550239742199922e-09
7.094188376753506553e+00 -8.247316515037170781e-01 9.831464872532249886e-11
7.134268537074148320e+00 -8.262932081610422363e-01 2.623576352472381460e-09
7.174348697394789198e+00 -8.228509531355956419e-01 3.499837569755703698e-09
7.214428857715430965e+00 -8.144855402136370603e-01 5.020306508367212855e-10
7.254509018036071843e+00 -8.013169788125077408e-01 4.080983395059918514e-09
7.294589178356712722e+00 -7.835029797355275161e-01 3.125228537377674919e-08
7.334669338677354489e+00 -7.612376769280464472e-01 9.026232956346489186e-08
7.374749498997995367e+00 -7.347504824860617845e-01 1.689146000132003524e-07
7.414829659318637134e+00 -7.043053131565331082e-01 2.365710177364440246e-07
7.454909819639278012e+00 -6.701998414514276359e-01 2.599147041200947334e-07
7.494989979959919779e+00 -6.327648575823059396e-01 2.230539642543819490e-07
7.535070140280560658e+00 -5.923635879438476914e-01 1.396425668133521801e-07
7.575150300601202424e+00 -5.493906781789816840e-01 4.964152428401955976e-08
7.615230460921843303e+00 -5.042711170129615672e-01 2.485374507611468523e-09
7.655310621242485070e+00 -4.574582866067674058e-01 3.589755621368577177e-08
7.695390781563125948e+00 -4.094320040221785528e-01 1.614223224122947739e-07
7.735470941883766827e+00 -3.606951632830497911e-01 3.633780492603789129e-07
7.775551102204408593e+00 -3.117704948857735192e-01 6.106355194930419090e-07
7.815631262525049472e+00 -2.631955144061411400e-01 8.748707010723052735e-07
7.855711422845691239e+00 -2.155177904770198549e-01 1.147571628942577444e-06
7.895791583166332117e+00 -1.692881924658238557e-01 1.451902947468282821e-06
7.935871743486973884e+00 -1.250547199938822907e-01 1.851993221530126462e-06
7.975951903807614762e+00 -8.335436476556613850e-02 2.468721869491349622e-06
8.016032064128255641e+00 -4.470584688243942756e-02 3.515612776506290258e-06
8.056112224448897408e+00 -9.600718392252041017e-03 5.370756239534806088e-06
8.096192384769539174e+00 2.150437766583641538e-02 8.703231177548146223e-06
8.136272545090179165e+00 4.819649119732696829e-02 1.467750782561087972e-05
8.176352705410820931e+00 7.011376885666301129e-02 2.526986174101879154e-05
8.216432865731462698e+00 8.695313355892644869e-02 4.374852468735795523e-05
8.256513026052104465e+00 9.847645100742614954e-02 7.539366951044949589e-05
8.296593186372744455e+00 1.045161514522994911e-01 1.285651244800665809e-04
8.336673346693386222e+00 1.049793004205455266e-01 2.162598832177084463e-04
8.376753507014027988e+00 9.985042663133408825e-02 3.583372864249129977e-04
8.416833667334669755e+00 8.919281409903107027e-02 5.846167807920760011e-04
8.456913827655309746e+00 7.314813631668939942e-02 9.390648887751774573e-04
8.496993987975951512e+00 5.193460840504717652e-02 1.485267314316488386e-03
8.537074148296593279e+00 2.584342118328906979e-02 2.313317201495924610e-03
8.577154308617233269e+00 -4.766202764200455286e-03 3.548112659876022281e-03
8.617234468937875036e+00 -3.947338135446502166e-02 5.358853768470265948e-03
8.657314629258516803e+00 -7.780315977624506496e-02 7.969196484561244867e-03
8.697394789579158569e+00 -1.192349522110084242e-01 1.166716390984391151e-02
8.737474949899798560e+00 -1.632119762328247681e-01 1.681335896912343128e-02
8.777555110220440326e+00 -2.091507994936150083e-01 2.384563453725169896e-02
8.817635270541082093e+00 -2.564516100886684025e-01 3.327770882072194486e-02
8.857715430861723860e+00 -3.045078278003119920e-01 4.568915849680845603e-02
8.897795591182363850e+00 -3.527161417553348888e-01 6.170377604860353971e-02
8.937875751503005617e+00 -4.004852284691775566e-01 8.195415813003383010e-02
8.977955911823647384e+00 -4.472445941100500200e-01 1.070306733713706215e-01
9.018036072144287374e+00 -4.924516599172443221e-01 1.374153343131986338e-01
9.058116232464929141e+00 -5.355986890237646181e-01 1.734024555039291593e-01
9.098196392785570907e+00 -5.762178072308431487e-01 2.150117458544743565e-01
9.138276553106212674e+00 -6.138856241370598266e-01 2.619015288827494237e-01
9.178356713426852664e+00 -6.482260940643876923e-01 3.132935419967259882e-01
9.218436873747494431e+00 -6.789127967316707091e-01 3.679219460835551070e-01
9.258517034068136198e+00 -7.056698484551711115e-01 4.240203812679331219e-01
9.298597194388777964e+00 -7.282721298068313143e-01 4.793588757688576063e-01
9.338677354709417955e+00 -7.465446753415673209e-01 5.313389117052689237e-01
9.378757515030059722e+00 -7.603613821545817109e-01 5.771481567818864677e-01
9.418837675350701488e+00 -7.696434124824484968e-01 6.139687330252951991e-01
9.458917835671341479e+00 -7.743570314358977358e-01 6.392227367129561522e-01
9.498997995991983245e+00 -7.745115668534463538e-01 6.508314397314325372e-01
9.539078156312625012e+00 -7.701569963161085663e-01 6.474562703809307873e-01
9.579158316633266779e+00 -7.613819210375341040e-01 6.286892654010912684e-01
9.619238476953906769e+00 -7.483113810278925193e-01 5.951607286476077174e-01
9.659318637274548536e+00 -7.311051323106203537e-01 5.485419796211390420e-01
9.699398797595190302e+00 -7.099559533849636450e-01 4.914323563430433306e-01
9.739478957915832069e+00 -6.850883036805832660e-01 4.271364803740115845e-01
9.779559118236472059e+00 -6.567571392908803096e-01 3.593555443076221212e-01
9.819639278557113826e+00 -6.252468178592871517e-01 2.918287717257708747e-01
9.859719438877755593e+00 -5.908702135772467834e-01 2.279746212340687805e-01
9.899799599198395583e+00 -5.539675614236755363e-01 1.705778826883758981e-01
9.939879759519037350e+00 -5.149054919531718122e-01 1.215687965378855345e-01
9.979959919839679117e+00 -4.740754105907836746e-01 8.191917287115890733e-02
1.002004008016032088e+01 -4.318919920488613062e-01 5.166794552653133921e-02
1.006012024048096087e+01 -3.887906901515287283e-01 3.006102997719757239e-02
1.010020040080160264e+01 -3.452252550585400148e-01 1.577707343275220817e-02
1.014028056112224441e+01 -3.016640711827225929e-01 7.193998170150283679e-03
1.018036072144288617e+01 -2.585863859617672511e-01 2.650536964873606138e-03
1.022044088176352616e+01 -2.164773645382966349e-01 6.606139706571523100e-04
1.026052104208416793e+01 -1.758229289719019095e-01 5.291382433546607108e-05
1.030060120240480970e+01 -1.371036640552296959e-01 2.535546912897294650e-05
1.034068136272544969e+01 -1.007884379088942461e-01 1.225906439465774341e-04
1.038076152304609145e+01 -6.732753491722709427e-02 1.589090061296865404e-04
1.042084168336673322e+01 -3.714551968621254696e-02 1.163946979103414948e-04
1.046092184368737499e+01 -1.063418445744085047e-02 4.765167728979844536e-05
1.050100200400801498e+01 1.185464876489772737e-02 4.861476102937651796e-06
