# time correlation overlap_with_initial
0.000000000000000000e+00 -1.000000000000000000e+00 1.000000000000000000e+00
4.008016032064128098e-02 -9.967240577962542813e-01 9.853544451944376004e-01
8.016032064128256196e-02 -9.869177072743503532e-01 9.426461782228009456e-01
1.202404809619238429e-01 -9.706457679652503723e-01 8.753966272254524172e-01
1.603206412825651239e-01 -9.480177535554956680e-01 7.889584338947465136e-01
2.004008016032063910e-01 -9.191891279201883647e-01 6.898332700664040473e-01
2.404809619238476859e-01 -8.843635943486165552e-01 5.848909262894714800e-01
2.805611222444889807e-01 -8.437953616121012246e-01 4.806121862394112654e-01
3.206412825651302478e-01 -7.977916435720974198e-01 3.824689235238231677e-01
3.607214428857715149e-01 -7.467152907413303620e-01 2.945164624766625772e-01
4.008016032064127820e-01 -6.909863531179180063e-01 2.192279230298577741e-01
4.408817635270541047e-01 -6.310842541529236849e-01 1.575569328277921510e-01
4.809619238476953718e-01 -5.675472901957673288e-01 1.091756877521473240e-01
5.210420841683366389e-01 -5.009733402583952389e-01 7.281945331856259918e-02
5.611222444889779615e-01 -4.320163580994126895e-01 4.666202100927381580e-02
6.012024048096191731e-01 -3.613846017049297532e-01 2.866070449882916760e-02
6.412825651302604957e-01 -2.898335651107787903e-01 1.682867838179964715e-02
6.813627254509018183e-01 -2.181609008979660813e-01 9.415907289536619776e-03
7.214428857715430299e-01 -1.471958040598023709e-01 5.000995117231345558e-03
7.615230460921843525e-01 -7.779019018055774448e-02 2.509629136719509178e-03
8.016032064128255641e-01 -1.080520041809614543e-02 1.183153103617509694e-03
8.416833667334668867e-01 5.290121469498289264e-02 5.203028081190997885e-04
8.817635270541082093e-01 1.124894439163734716e-01 2.115080039707780606e-04
9.218436873747494209e-01 1.671532455670510786e-01 7.854974983759759500e-05
9.619238476953907435e-01 2.161351063839746511e-01 2.623435674538227531e-05
1.002004008016031955e+00 2.587420500675101098e-01 7.708886254754698211e-06
1.042084168336673278e+00 2.943596294795594037e-01 1.930161418727751414e-06
1.082164328657314600e+00 3.224662830560185434e-01 3.915523761531339469e-07
1.122244488977955923e+00 3.426443614295520690e-01 5.892745396066142219e-08
1.162324649298597246e+00 3.545908394796974950e-01 5.460042735806733101e-09
1.202404809619238346e+00 3.581240051549212100e-01 1.720642504672912683e-10
1.242484969939879669e+00 3.531888004973343098e-01 2.365745797014242799e-12
1.282565130260520991e+00 3.398582586324971344e-01 2.059288892956611988e-12
1.322645290581162314e+00 3.183325822265262173e-01 5.501452449992950581e-15
1.362725450901803637e+00 2.889350184328021709e-01 9.283341079203998816e-14
1.402805611222444737e+00 2.521048443247803084e-01 2.194842150723813727e-12
1.442885771543086060e+00 2.083880039776928872e-01 3.835764060698582509e-12
1.482965931863727382e+00 1.584252266660010344e-01 9.710857728660408690e-13
1.523046092184368705e+00 1.029383758060605503e-01 2.893399124265887778e-12
1.563126252505010028e+00 4.271562320064494628e-02 1.809524107255614432e-11
1.603206412825651128e+00 -2.140494292589960323e-02 3.517796000723412106e-11
1.643286573146292451e+00 -8.855093018652415715e-02 3.447791491717537958e-11
1.683366733466933773e+00 -1.578328705530188669e-01 1.584109689170956964e-11
1.723446893787575096e+00 -2.283586249309405292e-01 4.508587689654342787e-12
1.763527054108216419e+00 -2.992495293196452688e-01 2.628089147579106290e-11
1.803607214428857741e+00 -3.696520835248160441e-01 7.958339040304581195e-11
1.843687374749498842e+00 -4.387513962153206659e-01 1.337983067088016162e-10
1.883767535070140164e+00 -5.057793380134518735e-01 1.544275786803822016e-10
1.923847695390781487e+00 -5.700241964823288265e-01 1.305113725138545879e-10
1.963927855711422810e+00 -6.308352083631544316e-01 8.067269210196998641e-11
2.004008016032063910e+00 -6.876279797647141256e-01 3.590164841027328118e-11
2.044088176352705233e+00 -7.398859341678181156e-01 1.636130635465168753e-11
2.084168336673346555e+00 -7.871617225696748710e-01 2.080945296884247282e-11
2.124248496993987878e+00 -8.290764399622874148e-01 3.353498058947578641e-11
2.164328657314629201e+00 -8.653179492792809624e-01 3.932191553316277295e-11
2.204408817635270523e+00 -8.956387174332524070e-01 3.344887305263479519e-11
2.244488977955911846e+00 -9.198523719630132822e-01 2.105600769210401372e-11
2.284569138276553169e+00 -9.378309740437887898e-01 9.791610569787158717e-12
2.324649298597194491e+00 -9.495011298349286255e-01 3.507453516711769795e-12
2.364729458917835370e+00 -9.548413998401109604e-01 1.339523526922557521e-12
2.404809619238476692e+00 -9.538790326800755670e-01 7.636614786206989322e-13
2.444889779559118015e+00 -9.466879942079554633e-01 4.030534421106744920e-13
2.484969939879759337e+00 -9.333869711898870047e-01 2.133719232437114877e-13
2.525050100200400660e+00 -9.141382419851132868e-01 2.832200143579451322e-13
2.565130260521041983e+00 -8.891470867436218617e-01 1.096199836815231193e-12
2.605210420841683305e+00 -8.586614715057760971e-01 6.293757568405090366e-12
2.645290581162324628e+00 -8.229724757577604466e-01 2.570374947895965493e-11
2.685370741482965951e+00 -7.824145608185758549e-01 7.486574889788495806e-11
2.725450901803607273e+00 -7.373662049751463776e-01 1.690979313948414991e-10
2.765531062124248596e+00 -6.882503162613731185e-01 3.140671586501165618e-10
2.805611222444889474e+00 -6.355340888035916347e-01 4.978646289318407088e-10
2.845691382765530797e+00 -5.797289192998963392e-01 6.893504752056670330e-10
2.885771543086172120e+00 -5.213885450145540057e-01 8.441955674921445698e-10
2.925851703406813442e+00 -4.611077381296723732e-01 9.158232404444599694e-10
2.965931863727454765e+00 -3.995180028956059615e-01 8.667441624519879873e-10
3.006012024048096087e+00 -3.372849239708935465e-01 6.790916385038594470e-10
3.046092184368737410e+00 -2.750993236321909174e-01 3.722892201548142995e-10
3.086172344689378733e+00 -2.136742143086227397e-01 6.021028789547430697e-11
3.126252505010020055e+00 -1.537325911935770728e-01 1.268648559922608728e-10
3.166332665330661378e+00 -9.600122639474431563e-02 1.723045890421372683e-09
3.206412825651302256e+00 -4.119860733346145110e-02 8.064141627942661457e-09
3.246492985971943579e+00 9.975163320916597548e-03 2.763003644945355700e-08
3.286573146292584902e+00 5.685162058991980599e-02 8.166762830344734412e-08
3.326653306613226224e+00 9.880513020493360277e-02 2.209499939551101469e-07
3.366733466933867547e+00 1.352643257729911341e-01 5.615064595757237113e-07
3.406813627254508869e+00 1.657238419409394481e-01 1.357508932267125738e-06
3.446893787575150192e+00 1.897552099739485409e-01 3.143776617210270067e-06
3.486973947895791515e+00 2.070158139481211024e-01 7.003260022818019070e-06
3.527054108216432837e+00 2.172568792098169554e-01 1.504973973068541398e-05
3.567134268537074160e+00 2.203300212834810035e-01 3.126647187969675039e-05
3.607214428857715482e+00 2.161906911602207437e-01 6.290839210114942915e-05
3.647294589178356361e+00 2.049005664617999656e-01 1.227614423790825702e-04
3.687374749498997684e+00 1.866267366639391689e-01 2.326450497610696065e-04
3.727454909819639006e+00 1.616392109056839221e-01 4.286362996972576051e-04
3.767535070140280329e+00 1.303058199836378273e-01 7.685492067274389766e-04
3.807615230460921651e+00 9.308509088398239650e-02 1.342187419502850537e-03
3.847695390781562974e+00 5.051734466008053759e-02 2.284745380500145633e-03
3.887775551102204297e+00 3.213949746076229675e-03 3.793389303458164288e-03
3.927855711422845619e+00 -4.815450659192525851e-02 6.146471772928072813e-03
3.967935871743486942e+00 -1.028710287880516688e-01 9.723947454538075727e-03
4.008016032064127820e+00 -1.601857502235936037e-01 1.502640856981941019e-02
4.048096192384769587e+00 -2.193290893576951006e-01 2.268886444532585214e-02
4.088176352705410466e+00 -2.795255598970709521e-01 3.348398131398819255e-02
4.128256513026052232e+00 -3.400057151884806617e-01 4.830872276880292943e-02
4.168336673346693111e+00 -4.000188248521541201e-01 6.814771877139316758e-02
4.208416833667334878e+00 -4.588424462643720392e-01 9.400818546734894532e-02
4.248496993987975756e+00 -5.157928158634403903e-01 1.268229109462787607e-01
4.288577154308616635e+00 -5.702314314339702594e-01 1.673230890515426672e-01
4.328657314629258401e+00 -6.215724229069018447e-01 2.158874578676185929e-01
4.368737474949899280e+00 -6.692861058819067344e-01 2.723823302944159974e-01
4.408817635270541047e+00 -7.129030885269191931e-01 3.360127782720722656e-01
4.448897795591181925e+00 -7.520152513616409351e-01 4.052114032976588676e-01
4.488977955911823692e+00 -7.862768292450652563e-01 4.775925383588613404e-01
4.529058116232464570e+00 -8.154035692891701270e-01 5.499972580131422539e-01
4.569138276553106337e+00 -8.391714741009084211e-01 6.186458132585869185e-01
4.609218436873747216e+00 -8.574149200121207182e-01 6.794007146355236504e-01
4.649298597194388982e+00 -8.700240599221535920e-01 7.281241869073969974e-01
4.689378757515029861e+00 -8.769425719938569452e-01 7.610969449053859304e-01
4.729458917835670739e+00 -8.781647307943862835e-01 7.754446755628447985e-01
4.769539078156312506e+00 -8.737333167710140680e-01 7.695133948139130098e-01
4.809619238476953385e+00 -8.637371380769054419e-01 7.431293309814859249e-01
4.849699398797595151e+00 -8.483094161427132684e-01 6.976957325168895441e-01
4.889779559118236030e+00 -8.276261867794248994e-01 6.360977278024934067e-01
4.929859719438877796e+00 -8.019052277964247022e-01 5.624182183432149262e-01
4.969939879759518675e+00 -7.714053556760578356e-01 4.815010735927720553e-01
5.010020040080160442e+00 -7.364257316751742222e-01 3.984215775945185722e-01
5.050100200400801320e+00 -6.973056679403539793e-01 3.179471648825352714e-01
5.090180360721443087e+00 -6.544239844410207896e-01 2.440658729805060267e-01
5.130260521042083965e+00 -6.081986208990022291e-01 1.796538187780738205e-01
5.170340681362724844e+00 -5.590856193282481845e-01 1.263198159185899283e-01
5.210420841683366611e+00 -5.075777140797907983e-01 8.443607476336788265e-02
5.250501002004007489e+00 -4.542024363336321646e-01 5.332811043760028735e-02
5.290581162324649256e+00 -3.995189655743873192e-01 3.157210244045636355e-02
5.330661322645290134e+00 -3.441148730414075874e-01 1.733545910312673730e-02
5.370741482965931901e+00 -2.886007716255815647e-01 8.697338372885795796e-03
5.410821643286572780e+00 -2.336053668411311179e-01 3.900955076148032979e-03
5.450901803607214546e+00 -1.797678152602729951e-01 1.511413331949063152e-03
5.490981963927855425e+00 -1.277310025611187727e-01 4.765601564723158487e-04
5.531062124248497192e+00 -7.813196236695883756e-02 1.082822290808345335e-04
5.571142284569138070e+00 -3.159361280842248876e-02 1.268096517530962675e-05
5.611222444889778949e+00 1.128597635554978371e-02 1.933110498096457025e-07
5.651302605210420715e+00 4.994283334656682283e-02 8.768943523476071512e-07
5.691382765531061594e+00 8.385783889626267917e-02 2.805598510161955953e-07
5.731462925851703361e+00 1.125661086592199267e-01 5.802072004235100543e-07
5.771543086172344239e+00 1.356665051087731222e-01 3.457433415874506789e-06
5.811623246492986006e+00 1.528300308772214122e-01 6.946023297196549110e-06
5.851703406813626884e+00 1.638069880960009161e-01 8.165037083130273366e-06
5.891783567134268651e+00 1.684331346353376557e-01 6.212278052332496232e-06
5.931863727454909530e+00 1.666336496592871474e-01 2.763488086803697548e-06
5.971943887775551296e+00 1.584260021271503005e-01 5.929096414668938793e-07
6.012024048096192175e+00 1.439202271446041737e-01 1.537260807940510767e-06
6.052104208416833053e+00 1.233178773423010688e-01 5.341692272171565630e-06
6.092184368737474820e+00 9.690853978018923454e-02 9.951866253975133806e-06
6.132264529058115698e+00 6.506480145783212488e-02 1.285115219609728905e-05
6.172344689378757465e+00 2.823537229273662824e-02 1.252467859544610862e-05
6.212424849699398344e+00 -1.306340128950456494e-02 9.226997207416713585e-06
6.252505010020040110e+00 -5.825707290616364414e-02 4.735272050107527704e-06
6.292585170340680989e+00 -1.067239664178441377e-01 1.349795244360611025e-06
6.332665330661322756e+00 -1.578063932346604747e-01 7.447426705693619230e-07
6.372745490981963634e+00 -2.108224912658845096e-01 3.248511338878102274e-06
6.412825651302604513e+00 -2.650780111855405852e-01 7.832943704619149886e-06
6.452905811623246279e+00 -3.198776858070567775e-01 1.270681541787786617e-05
6.492985971943887158e+00 -3.745364337957040046e-01 1.614715163674998040e-05
6.533066132264528925e+00 -4.283890651329468335e-01 1.716088133653301533e-05
6.573146292585169803e+00 -4.807998881632797872e-01 1.572479424464007873e-05
6.613226452905811570e+00 -5.311699603059997221e-01 1.259182804315886998e-05
6.653306613226452448e+00 -5.789443761196435556e-01 8.841336597803038097e-06
6.693386773547094215e+00 -6.236167531781888762e-01 5.423407337532577330e-06
6.733466933867735094e+00 -6.647338587242822561e-01 2.881475858821909687e-06
6.773547094188376860e+00 -7.018974868413689894e-01 1.315561262091225483e-06
6.813627254509017739e+00 -7.347664774422862921e-01 5.226503757382035820e-07
6.853707414829658617e+00 -7.630565077843297628e-01 1.968643789096269117e-07
6.893787575150300384e+00 -7.865399036821274503e-01 8.323043902711920486e-08
6.933867735470941263e+00 -8.050440743217575079e-01 3.861364745346525661e-08
6.973947895791583029e+00 -8.184497697808316152e-01 1.366236224928647633e-08
7.014028056112223908e+00 -8.266888900438271737e-01 2.397563985122385517e-09
7.054108216432865675e+00 -8.297419948930703226e-01 2.667623353779040151e-09
7.094188376753506553e+00 -8.276360599751534375e-01 5.259796090122458432e-09
7.134268537074148320e+00 -8.204419931293405188e-01 3.398627270549720574e-09
7.174348697394789198e+00 -8.082727188705640664e-01 3.158767330492581235e-09
7.214428857715430965e+00 -7.912812212260368350e-01 2.123171176376852162e-08
7.254509018036071843e+00 -7.696591108724007979e-01 7.074940354698501190e-08
7.294589178356712722e+00 -7.436353934009469757e-01 1.466937651421254559e-07
7.334669338677354489e+00 -7.134754370435334447e-01 2.230116590613050610e-07
7.374749498997995367e+00 -6.794803265962768846e-01 2.648799911607045375e-07
7.414829659318637134e+00 -6.419859508485329380e-01 2.490756165619924735e-07
7.454909819639278012e+00 -6.013625045512471790e-01 1.797704348515805749e-07
7.494989979959919779e+00 -5.580132945690235990e-01 9.014607614361983911e-08
7.535070140280560658e+00 -5.123737452743383214e-01 2.875945650008362919e-08
7.575150300601202424e+00 -4.649095003704351026e-01 3.840683786422664279e-08
7.615230460921843303e+00 -4.161142395133830552e-01 1.388864647280809666e-07
7.655310621242485070e+00 -3.665066803223129277e-01 3.221318682062374215e-07
7.695390781563125948e+00 -3.166266743165924713e-01 5.611175154426877110e-07
7.735470941883766827e+00 -2.670308146453714282e-01 8.271946103813746038e-07
7.775551102204408593e+00 -2.182865710174055618e-01 1.107988000620944086e-06
7.815631262525049472e+00 -1.709664139077629874e-01 1.420671306008450531e-06
7.855711422845691239e+00 -1.256401109954030926e-01 1.821874595828520976e-06
7.895791583166332117e+00 -8.286754988584113524e-02 2.422566826491725119e-06
7.935871743486973884e+00 -4.318970641053777176e-02 3.421594285426094744e-06
7.975951903807614762e+00 -7.120631455762557564e-03 5.174977244455237476e-06
8.016032064128255641e+00 2.486205493975440772e-02 8.320722968946389175e-06
8.056112224448897408e+00 5.232530182574361005e-02 1.398428828147051350e-05
8.096192384769539174e+00 7.488952578072476107e-02 2.410025032516672954e-05
8.136272545090179165e+00 9.223600179246192743e-02 4.190337857370742523e-05
8.176352705410820931e+00 1.041140245569882467e-01 7.266815258603824914e-05
8.216432865731462698e+00 1.103466094125882951e-01 1.248081473546380554e-04
8.256513026052104465e+00 1.108349856172052422e-01 2.114847606374050141e-04
8.296593186372744455e+00 1.055617075364153890e-01 3.529130725118352955e-04
8.336673346693386222e+00 9.459189826037786575e-02 5.795843745273311989e-04
8.376753507014027988e+00 7.807312617195349969e-02 9.366399633487477398e-04
8.416833667334669755e+00 5.623321451074881488e-02 1.489613089601789621e-03
8.456913827655309746e+00 2.937666362286657853e-02 2.331683676980030821e-03
8.496993987975951512e+00 -2.120744496575953895e-03 3.592458045437043647e-03
8.537074148296593279e+00 -3.781870910737419877e-02 5.448032394274016435e-03
8.577154308617233269e+00 -7.722040623726060538e-02 8.131802358153930599e-03
8.617234468937875036e+00 -1.197817047067850638e-01 1.194497168979637494e-02
8.657314629258516803e+00 -1.649208825302002079e-01 1.726529587565472576e-02
8.697394789579158569e+00 -2.120292111007830438e-01 2.455188257632736487e-02
8.737474949899798560e+00 -2.604813835129173305e-01 3.434355673808133641e-02
8.777555110220440326e+00 -3.096462075541081549e-01 4.724770489888865249e-02
8.817635270541082093e+00 -3.588967442685380149e-01 6.391672971888850974e-02
8.857715430861723860e+00 -4.076199232236574765e-01 8.500943725536073969e-02
8.897795591182363850e+00 -4.552254883484351256e-01 1.111359213197597728e-01
8.937875751503005617e+00 -5.011536490110505282e-01 1.427861992787317902e-01
8.977955911823647384e+00 -5.448821316613116084e-01 1.802453228338996571e-01
9.018036072144287374e+00 -5.859313841936751865e-01 2.235008837720148522e-01
9.058116232464929141e+00 -6.238693397415185915e-01 2.721519056535655068e-01
9.098196392785570907e+00 -6.583141130050300660e-01 3.253313014518809387e-01
9.138276553106212674e+00 -6.889364239374754506e-01 3.816560304758572220e-01
9.178356713426852664e+00 -7.154600962113301099e-01 4.392192438046110814e-01
9.218436873747494431e+00 -7.376624024732993945e-01 4.956373701948398325e-01
9.258517034068136198e+00 -7.553729355025512460e-01 5.481593996173094174e-01
9.298597194388777964e+00 -7.684723739899155248e-01 5.938400076463934418e-01
9.338677354709417955e+00 -7.768904105514445879e-01 6.297670616768488161e-01
9.378757515030059722e+00 -7.806035669511729447e-01 6.533260641020622872e-01
9.418837675350701488e+00 -7.796328195602449940e-01 6.624732135202352490e-01
9.458917835671341479e+00 -7.740411105324083163e-01 6.559834501164926168e-01
9.498997995991983245e+00 -7.639311396073517058e-01 6.336375695725805501e-01
9.539078156312625012e+00 -7.494431049032272973e-01 5.963157909856151573e-01
9.579158316633266779e+00 -7.307529071446067226e-01 5.459757744984073957e-01
9.619238476953906769e+00 -7.080704194370754934e-01 4.855071877118968260e-01
9.659318637274548536e+00 -6.816381225718854964e-01 4.184730833174777898e-01
9.699398797595190302e+00 -6.517299195388689403e-01 3.487676174924604355e-01
9.739478957915832069e+00 -6.186500081493631065e-01 2.802318873743792071e-01
9.779559118236472059e+00 -5.827319910844371842e-01 2.162825161571561572e-01
9.819639278557113826e+00 -5.443376348601423054e-01 1.596016876394565909e-01
9.859719438877755593e+00 -5.038558274338696963e-01 1.119348122139570967e-01
9.899799599198395583e+00 -4.617008045481138523e-01 7.401774610610022120e-02
9.939879759519037350e+00 -4.183104087054473341e-01 4.564007457961494207e-02
9.979959919839679117e+00 -3.741434023269588627e-01 2.582274073528203692e-02
1.002004008016032088e+01 -3.296765110528461773e-01 1.307392652315323735e-02
1.006012024048096087e+01 -2.854005666631934668e-01 5.673426012484219898e-03
1.010020040080160264e+01 -2.418160020282509037e-01 1.936566275683977842e-03
1.014028056112224441e+01 -1.994277311102166106e-01 4.169014815221529463e-04
1.018036072144288617e+01 -1.587390693937687780e-01 2.378828678426030686e-05
1.022044088176352616e+01 -1.202454831374893257e-01 5.072831986929673948e-05
1.026052104208416793e+01 -8.442723988313856343e-02 1.290785557656845854e-04
1.030060120240480970e+01 -5.174241206709982721e-02 1.347516596020527303e-04
1.034068136272544969e+01 -2.261887545128760113e-02 8.044153442518631289e-05
1.038076152304609145e+01 2.552826485008962906e-03 2.235858591888502286e-05
1.042084168336673322e+01 2.342728051624422964e-02 1.008587292722291230e-07
1.046092184368737499e+01 3.971072635592155786e-02 1.506306489610355101e-05
1.050100200400801498e+01 5.116768638059059071e-02 4.027313060828256335e-05
