# time correlation fidelity
0.000000000000000000e+00 -1.058823529411764719e+00 1.000000000000000000e+00
4.008016032064128098e-02 -1.058789439037937097e+00 9.998551252400138534e-01
8.016032064128256196e-02 -1.058687170099167574e+00 9.994206221742000240e-01
1.202404809619238429e-01 -1.058516729257504174e+00 9.986968546551140413e-01
1.603206412825651239e-01 -1.058278127646308686e+00 9.976844284364542181e-01
2.004008016032063910e-01 -1.057971380826531860e+00 9.963841905785411068e-01
2.404809619238476859e-01 -1.057596508582664852e+00 9.947972278677329472e-01
2.805611222444889807e-01 -1.057153535639373088e+00 9.929248659632293750e-01
3.206412825651302478e-01 -1.056642491048680910e+00 9.907686689702854821e-01
3.607214428857715149e-01 -1.056063407675392973e+00 9.883304332963733785e-01
4.008016032064127820e-01 -1.055416323114502841e+00 9.856121847172940598e-01
4.408817635270541047e-01 -1.054701278980999968e+00 9.826161827544346306e-01
4.809619238476953718e-01 -1.053918321154797999e+00 9.793449092527002353e-01
5.210420841683366389e-01 -1.053067500879943719e+00 9.758010700771341250e-01
5.611222444889779615e-01 -1.052148872801318857e+00 9.719875961451357460e-01
6.012024048096191731e-01 -1.051162495098534766e+00 9.679076243866041596e-01
6.412825651302604957e-01 -1.050108430799855830e+00 9.635645018271624673e-01
6.813627254509018183e-01 -1.048986747807161724e+00 9.589617867974001841e-01
7.214428857715430299e-01 -1.047797519353893092e+00 9.541032433949667713e-01
7.615230460921843525e-01 -1.046540824574506257e+00 9.489928387747412764e-01
8.016032064128255641e-01 -1.045216748163357856e+00 9.436347365943097421e-01
8.416833667334668867e-01 -1.043825370922772944e+00 9.380332541610755248e-01
8.817635270541082093e-01 -1.042366781606578030e+00 9.321929037680433128e-01
9.218436873747494209e-01 -1.040841076719255742e+00 9.261183859520253359e-01
9.619238476953907435e-01 -1.039248359465756444e+00 9.198145792160813405e-01
1.002004008016031955e+00 -1.037588740497222828e+00 9.132865366829687748e-01
1.042084168336673278e+00 -1.035862334107087612e+00 9.065394642914168521e-01
1.082164328657314600e+00 -1.034069239750931679e+00 8.995786396017251274e-01
1.122244488977955923e+00 -1.032209573517821166e+00 8.924095309127211273e-01
1.162324649298597246e+00 -1.030283460629474845e+00 8.850377599373151494e-01
1.202404809619238346e+00 -1.028291034113169244e+00 8.774690890080850680e-01
1.242484969939879669e+00 -1.026232435716339486e+00 8.697094171283560327e-01
1.282565130260520991e+00 -1.024107806112317887e+00 8.617647367745814302e-01
1.322645290581162314e+00 -1.021917267692645570e+00 8.536410635837425875e-01
1.362725450901803637e+00 -1.019660966181393791e+00 8.453445807468439321e-01
1.402805611222444737e+00 -1.017339056040678980e+00 8.368815777370535169e-01
1.442885771543086060e+00 -1.014951700230471765e+00 8.282584414904780035e-01
1.482965931863727382e+00 -1.012499071177747068e+00 8.194816519361054485e-01
1.523046092184368705e+00 -1.009981332527329467e+00 8.105577105290125983e-01
1.563126252505010028e+00 -1.007398634443944507e+00 8.014931159673521766e-01
1.603206412825651128e+00 -1.004751153168414790e+00 7.922944938068054999e-01
1.643286573146292451e+00 -1.002039073487142051e+00 7.829685271340577346e-01
1.683366733466933773e+00 -9.992625895567498473e-01 7.735219512006707987e-01
1.723446893787575096e+00 -9.964219058570183973e-01 7.639615485210191625e-01
1.763527054108216419e+00 -9.935172064735536823e-01 7.542940431310153349e-01
1.803607214428857741e+00 -9.905486732588513199e-01 7.445261507575978710e-01
1.843687374749498842e+00 -9.875165131116571127e-01 7.346646575961939263e-01
1.883767535070140164e+00 -9.844209420288276835e-01 7.247163614186787894e-01
1.923847695390781487e+00 -9.812621862091621683e-01 7.146880671049989919e-01
1.963927855711422810e+00 -9.780404816962174896e-01 7.045865780024306302e-01
2.004008016032063910e+00 -9.747560330972474540e-01 6.944185691494857426e-01
2.044088176352705233e+00 -9.714090566916437908e-01 6.841907047824337118e-01
2.084168336673346555e+00 -9.679997909286264246e-01 6.739096609843757690e-01
2.124248496993987878e+00 -9.645284841575800794e-01 6.635820827131966304e-01
2.164328657314629201e+00 -9.609953958098849114e-01 6.532145798604934717e-01
2.204408817635270523e+00 -9.574007926475189834e-01 6.428137101428182953e-01
2.244488977955911846e+00 -9.537449025049657969e-01 6.323858478893477075e-01
2.284569138276553169e+00 -9.500279786700672746e-01 6.219373505347088882e-01
2.324649298597194491e+00 -9.462502937130826686e-01 6.114745349917414252e-01
2.364729458917835370e+00 -9.424121313959297197e-01 6.010036491218831989e-01
2.404809619238476692e+00 -9.385137879901789271e-01 5.905308686562430465e-01
2.444889779559118015e+00 -9.345555609410557407e-01 5.800622705877711560e-01
2.484969939879759337e+00 -9.305376978668350452e-01 5.696037330956819078e-01
2.525050100200400660e+00 -9.264604845402748534e-01 5.591610957088564149e-01
2.565130260521041983e+00 -9.223242219130857178e-01 5.487401111265636233e-01
2.605210420841683305e+00 -9.181292209935013604e-01 5.383464309546538429e-01
2.645290581162324628e+00 -9.138758039823553503e-01 5.279856033345017297e-01
2.685370741482965951e+00 -9.095642898210539729e-01 5.176630257848370276e-01
2.725450901803607273e+00 -9.051949718031153669e-01 5.073838737804970966e-01
2.765531062124248596e+00 -9.007681806866063567e-01 4.971532760308362553e-01
2.805611222444889474e+00 -8.962842618724700117e-01 4.869762436369777792e-01
2.845691382765530797e+00 -8.917435751931106491e-01 4.768576639102551917e-01
2.885771543086172120e+00 -8.871464964852886492e-01 4.668022994983726526e-01
2.925851703406813442e+00 -8.824933702850416006e-01 4.568147296397877533e-01
2.965931863727454765e+00 -8.777844973429935749e-01 4.468993331475769049e-01
3.006012024048096087e+00 -8.730202354077796212e-01 4.370604060398918800e-01
3.046092184368737410e+00 -8.682009525001144201e-01 4.273021040608928067e-01
3.086172344689378733e+00 -8.633270276586014758e-01 4.176284417790573911e-01
3.126252505010020055e+00 -8.583988521266159299e-01 4.080432922763893022e-01
3.166332665330661378e+00 -8.534167970377050105e-01 3.985503158017197345e-01
3.206412825651302256e+00 -8.483812357363103018e-01 3.891530040582885097e-01
3.246492985971943579e+00 -8.432925734553221586e-01 3.798547405716253267e-01
3.286573146292584902e+00 -8.381512299337098293e-01 3.706587613589609753e-01
3.326653306613226224e+00 -8.329576410290920885e-01 3.615681560305039621e-01
3.366733466933867547e+00 -8.277122570983884708e-01 3.525858663300502349e-01
3.406813627254508869e+00 -8.224154516856087005e-01 3.437146098873841704e-01
3.446893787575150192e+00 -8.170676158937496547e-01 3.349569592290155273e-01
3.486973947895791515e+00 -8.116691806530808018e-01 3.263153608737644484e-01
3.527054108216432837e+00 -8.062205882379428479e-01 3.177921121080127254e-01
3.567134268537074160e+00 -8.007222937064025770e-01 3.093893628669630580e-01
3.607214428857715482e+00 -7.951747610232111629e-01 3.011091106986406030e-01
3.647294589178356361e+00 -7.895784138901777993e-01 2.929531358666958019e-01
3.687374749498997684e+00 -7.839337076417725036e-01 2.849230971861422268e-01
3.727454909819639006e+00 -7.782411222032631359e-01 2.770205229249182999e-01
3.767535070140280329e+00 -7.725011533678616260e-01 2.692467997126949952e-01
3.807615230460921651e+00 -7.667143144915674613e-01 2.616031754146285193e-01
3.847695390781562974e+00 -7.608811164998671162e-01 2.540907512105323729e-01
3.887775551102204297e+00 -7.550019805940512141e-01 2.467104397718576370e-01
3.927855711422845619e+00 -7.490773916680587563e-01 2.394630443253247254e-01
3.967935871743486942e+00 -7.431078573733987946e-01 2.323492407775094304e-01
4.008016032064127820e+00 -7.370938987109859619e-01 2.253695755062620210e-01
4.048096192384769587e+00 -7.310360516385017160e-01 2.185244687293654009e-01
4.088176352705410466e+00 -7.249348442531270420e-01 2.118142074142463638e-01
4.128256513026052232e+00 -7.187907589001321096e-01 2.052389317583325490e-01
4.168336673346693111e+00 -7.126043300597687535e-01 1.987986802831029909e-01
4.208416833667334878e+00 -7.063761084952856484e-01 1.924933773823510053e-01
4.248496993987975756e+00 -7.001066599273371160e-01 1.863228357576897365e-01
4.288577154308616635e+00 -6.937965665224464784e-01 1.802867601039802592e-01
4.328657314629258401e+00 -6.874463801214858449e-01 1.743847242787737728e-01
4.368737474949899280e+00 -6.810566136151301464e-01 1.686161697361808209e-01
4.408817635270541047e+00 -6.746278433290776588e-01 1.629804649126541938e-01
4.448897795591181925e+00 -6.681606612837425185e-01 1.574768818627599876e-01
4.488977955911823692e+00 -6.616556764771719390e-01 1.521045999868895771e-01
4.529058116232464570e+00 -6.551135164475000439e-01 1.468627100356560966e-01
4.569138276553106337e+00 -6.485347451998084711e-01 1.417502106616725932e-01
4.609218436873747216e+00 -6.419199124302782389e-01 1.367660152353485370e-01
4.649298597194388982e+00 -6.352696267185261592e-01 1.319089622959924990e-01
4.689378757515029861e+00 -6.285845104036735798e-01 1.271778156972796781e-01
4.729458917835670739e+00 -6.218652013437778736e-01 1.225712684929675805e-01
4.769539078156312506e+00 -6.151123520574948156e-01 1.180879464427667391e-01
4.809619238476953385e+00 -6.083265554441601441e-01 1.137264015350096663e-01
4.849699398797595151e+00 -6.015084239396999433e-01 1.094851258790192350e-01
4.889779559118236030e+00 -5.946586084384831716e-01 1.053625579508857685e-01
4.929859719438877796e+00 -5.877777749491798209e-01 1.013570830104206927e-01
4.969939879759518675e+00 -5.808666062224435711e-01 9.746703677526584453e-02
5.010020040080160442e+00 -5.739257934217681933e-01 9.369070800252669862e-02
5.050100200400801320e+00 -5.669559417337005636e-01 9.002633186276316757e-02
5.090180360721443087e+00 -5.599577045006334242e-01 8.647210704501015477e-02
5.130260521042083965e+00 -5.529317691499160414e-01 8.302619778753222990e-02
5.170340681362724844e+00 -5.458788391608337953e-01 7.968673526519548522e-02
5.210420841683366611e+00 -5.387996359236075783e-01 7.645182096151179052e-02
5.250501002004007489e+00 -5.316948779726432539e-01 7.331953142498322251e-02
5.290581162324649256e+00 -5.245651894568827966e-01 7.028792668693537027e-02
5.330661322645290134e+00 -5.174112625844415891e-01 6.735504207551461231e-02
5.370741482965931901e+00 -5.102338144820195431e-01 6.451889481521379255e-02
5.410821643286572780e+00 -5.030335772131723227e-01 6.177748775244622931e-02
5.450901803607214546e+00 -4.958112995535829404e-01 5.912881218450571907e-02
5.490981963927855425e+00 -4.885677166744792910e-01 5.657085103829541384e-02
5.531062124248497192e+00 -4.813034999193766539e-01 5.410158179113953164e-02
5.571142284569138070e+00 -4.740193868629125062e-01 5.171897709309272034e-02
5.611222444889778949e+00 -4.667161331637535437e-01 4.942100821761179902e-02
5.651302605210420715e+00 -4.593945104026693205e-01 4.720564753412109099e-02
5.691382765531061594e+00 -4.520553077251558416e-01 4.507087083576553910e-02
5.731462925851703361e+00 -4.446992743181323871e-01 4.301466338777380771e-02
5.771543086172344239e+00 -4.373271073661877395e-01 4.103502220723111854e-02
5.811623246492986006e+00 -4.299395787403883507e-01 3.912994992477594747e-02
5.851703406813626884e+00 -4.225374756485519301e-01 3.729746101121774599e-02
5.891783567134268651e+00 -4.151216017866127816e-01 3.553558368016745267e-02
5.931863727454909530e+00 -4.076927789186290951e-01 3.384236167948938279e-02
5.971943887775551296e+00 -4.002517593284686259e-01 3.221586392693797513e-02
6.012024048096192175e+00 -3.927992785552388844e-01 3.065418026208947821e-02
6.052104208416833053e+00 -3.853361346428753609e-01 2.915541612723891035e-02
6.092184368737474820e+00 -3.778631391669276529e-01 2.771769882030210644e-02
6.132264529058115698e+00 -3.703811190500012618e-01 2.633917877720933637e-02
6.172344689378757465e+00 -3.628909152697594731e-01 2.501803098644685489e-02
6.212424849699398344e+00 -3.553932932203336392e-01 2.375246205313615022e-02
6.252505010020040110e+00 -3.478890382705516759e-01 2.254070425397468672e-02
6.292585170340680989e+00 -3.403789787187785354e-01 2.138101535276193052e-02
6.332665330661322756e+00 -3.328639569906678419e-01 2.027168162309321564e-02
6.372745490981963634e+00 -3.253448313335767228e-01 1.921101865227956701e-02
6.412825651302604513e+00 -3.178224666390351283e-01 1.819737304704356282e-02
6.452905811623246279e+00 -3.102976297903436986e-01 1.722913223708131061e-02
6.492985971943887158e+00 -3.027711375770547608e-01 1.630471126370874879e-02
6.533066132264528925e+00 -2.952438414518810950e-01 1.542255519421326798e-02
6.573146292585169803e+00 -2.877166071291443195e-01 1.458114158706585312e-02
6.613226452905811570e+00 -2.801903163950426601e-01 1.377898084096010681e-02
6.653306613226452448e+00 -2.726658454664750986e-01 1.301461806132631419e-02
6.693386773547094215e+00 -2.651439692033929485e-01 1.228663936493460708e-02
6.733466933867735094e+00 -2.576255315770301646e-01 1.159366018628194342e-02
6.773547094188376860e+00 -2.501114003853168177e-01 1.093432892129601354e-02
6.813627254509017739e+00 -2.426024565009652911e-01 1.030732783504127378e-02
6.853707414829658617e+00 -2.350995955966390660e-01 9.711373054105411698e-03
6.893787575150300384e+00 -2.276036943560384995e-01 9.145216698975571282e-03
6.933867735470941263e+00 -2.201155540492653606e-01 8.607649894687289735e-03
6.973947895791583029e+00 -2.126360459558275795e-01 8.097493498837614323e-03
7.014028056112223908e+00 -2.051660572685502781e-01 7.613601614304235307e-03
7.054108216432865675e+00 -1.977064883418027663e-01 7.154861624423539124e-03
7.094188376753506553e+00 -1.902582542759900519e-01 6.720193917347640732e-03
7.134268537074148320e+00 -1.828222259012726447e-01 6.308555242251464960e-03
7.174348697394789198e+00 -1.753992164408740007e-01 5.918938711880982438e-03
7.214428857715430965e+00 -1.679901127850861597e-01 5.550365451558090212e-03
7.254509018036071843e+00 -1.605958138999136753e-01 5.201888241008603697e-03
7.294589178356712722e+00 -1.532172317820645890e-01 4.872591102083811791e-03
7.334669338677354489e+00 -1.458552929118111519e-01 4.561588827635879202e-03
7.374749498997995367e+00 -1.385108508587621357e-01 4.268029708170382151e-03
7.414829659318637134e+00 -1.311847386271950688e-01 3.991092680887552840e-03
7.454909819639278012e+00 -1.238778488698785152e-01 3.729983974756300499e-03
7.494989979959919779e+00 -1.165910842113785928e-01 3.483938541024901754e-03
7.535070140280560658e+00 -1.093253589329692133e-01 3.252219471780305564e-03
7.575150300601202424e+00 -1.020815975218046651e-01 3.034117528751550160e-03
7.615230460921843303e+00 -9.486064236581878695e-02 2.828954007740973071e-03
7.655310621242485070e+00 -8.766335168837201264e-02 2.636076065375310418e-03
7.695390781563125948e+00 -8.049062359022447766e-02 2.454855387654253460e-03
7.735470941883766827e+00 -7.334336589031489884e-02 2.284688812456413341e-03
7.775551102204408593e+00 -6.622249766545573735e-02 2.124997686373746898e-03
7.815631262525049472e+00 -5.912894043595527671e-02 1.975227525042154257e-03
7.855711422845691239e+00 -5.206351699898167235e-02 1.834850244476298646e-03
7.895791583166332117e+00 -4.502709392560941964e-02 1.703359113954072950e-03
7.935871743486973884e+00 -3.802056715800337244e-02 1.580268714439152060e-03
7.975951903807614762e+00 -3.104484192951542307e-02 1.465114941195921113e-03
8.016032064128255641e+00 -2.410083434363020222e-02 1.357454351015877081e-03
8.056112224448897408e+00 -1.718945091638068509e-02 1.256863859358622231e-03
8.096192384769539174e+00 -1.031149748464766508e-02 1.162941424325749035e-03
8.136272545090179165e+00 -3.467841222145664429e-03 1.075302782212108873e-03
8.176352705410820931e+00 3.340632371321766800e-03 9.935816056632859085e-04
8.216432865731462698e+00 1.011302998214508135e-02 9.174290744540481660e-04
8.256513026052104465e+00 1.684844898684853196e-02 8.465132615540873259e-04
8.296593186372744455e+00 2.354600947712963063e-02 7.805191034058800220e-04
8.336673346693386222e+00 3.020490849861238308e-02 7.191486117929271572e-04
8.376753507014027988e+00 3.682428143757226352e-02 6.621178469754339510e-04
8.416833667334669755e+00 4.340325365651532402e-02 6.091573362593588267e-04
8.456913827655309746e+00 4.994094337333242900e-02 5.600115800961719603e-04
8.496993987975951512e+00 5.643646032675885688e-02 5.144384954945999773e-04
8.537074148296593279e+00 6.288895859269273692e-02 4.722093936420338096e-04
8.577154308617233269e+00 6.929764935938123593e-02 4.331084820862450297e-04
8.617234468937875036e+00 7.566168222416136402e-02 3.969311932840014867e-04
8.657314629258516803e+00 8.198020094060551322e-02 3.634842714721117358e-04
8.697394789579158569e+00 8.825234273739566981e-02 3.325852848215295221e-04
8.737474949899798560e+00 9.447723713812666846e-02 3.040621458230484777e-04
8.777555110220440326e+00 1.006540833362422616e-01 2.777530179478036659e-04
8.817635270541082093e+00 1.067821043667566971e-01 2.535055813734442384e-04
8.857715430861723860e+00 1.128604750937020479e-01 2.311762640445833277e-04
8.897795591182363850e+00 1.188883668527675741e-01 2.106300533425690307e-04
8.937875751503005617e+00 1.248649460806262740e-01 1.917400836478362744e-04
8.977955911823647384e+00 1.307893756224635939e-01 1.743872530987242663e-04
9.018036072144287374e+00 1.366608953264403514e-01 1.584602802234998651e-04
9.058116232464929141e+00 1.424787371109333400e-01 1.438547965429884780e-04
9.098196392785570907e+00 1.482421034992537912e-01 1.304728991599954770e-04
9.138276553106212674e+00 1.539501943269370732e-01 1.182229696827518403e-04
9.178356713426852664e+00 1.596022055375894422e-01 1.070193403006892795e-04
9.218436873747494431e+00 1.651973364358097218e-01 9.678198688144141549e-05
9.258517034068136198e+00 1.707348735925792726e-01 8.743634889221381986e-05
9.298597194388777964e+00 1.762140730497376018e-01 7.891283252099936976e-05
9.338677354709417955e+00 1.816341719722435188e-01 7.114655771069194553e-05
9.378757515030059722e+00 1.869944055843138220e-01 6.407711796671791324e-05
9.418837675350701488e+00 1.922940059803657231e-01 5.764832164888597331e-05
9.458917835671341479e+00 1.975322188053924011e-01 5.180796091439956454e-05
9.498997995991983245e+00 2.027083781272094043e-01 4.650763653420524860e-05
9.539078156312625012e+00 2.078217736412940331e-01 4.170240706272941171e-05
9.579158316633266779e+00 2.128716858602762996e-01 3.735061291787940025e-05
9.619238476953906769e+00 2.178573949781923980e-01 3.341368151743224401e-05
9.659318637274548536e+00 2.227781797589647728e-01 2.985593303566012112e-05
9.699398797595190302e+00 2.276333426702202845e-01 2.664442109718014018e-05
9.739478957915832069e+00 2.324222532288149068e-01 2.374879116642961160e-05
9.779559118236472059e+00 2.371442384607230780e-01 2.114100436275948198e-05
9.819639278557113826e+00 2.417986236862534055e-01 1.879522552554771544e-05
9.859719438877755593e+00 2.463847349762345318e-01 1.668767728803562716e-05
9.899799599198395583e+00 2.509018982112706242e-01 1.479649886017697675e-05
9.939879759519037350e+00 2.553494782929878748e-01 1.310159500155276018e-05
9.979959919839679117e+00 2.597268892703594179e-01 1.158451043267650271e-05
1.002004008016032088e+01 2.640335052711408892e-01 1.022835171236040017e-05
1.006012024048096087e+01 2.682687023549199523e-01 9.017654909749552887e-06
1.010020040080160264e+01 2.724318581271749085e-01 7.938280786121215763e-06
1.014028056112224441e+01 2.765223509388329282e-01 6.977316526109681565e-06
1.018036072144288617e+01 2.805396167880879754e-01 6.122981594328121517e-06
1.022044088176352616e+01 2.844831161652124352e-01 5.364542686990343400e-06
1.026052104208416793e+01 2.883522803435416004e-01 4.692234343888160110e-06
1.030060120240480970e+01 2.921465446727168347e-01 4.097181835893605139e-06
1.034068136272544969e+01 2.958653476637569946e-01 3.571330226701313810e-06
1.038076152304609145e+01 2.995081318788396785e-01 3.107377824428436587e-06
1.042084168336673322e+01 3.030743995718572226e-01 2.698705234714092211e-06
1.046092184368737499e+01 3.065636546429319487e-01 2.339329759557579604e-06
1.050100200400801498e+01 3.099753874197274106e-01 2.023853598049984085e-06
